0,1,2,3,4,5,6,7,8,9,10,11,12,13,14,15,16,17,18,19,20,21,22,23,24,25,26,27,28,29,30,31,32,33,34,35,36,37,38,39,40,41,42,43,44,45,46,47,48,49,50,51,52,53,54,55,56,57,58,59,60,61,62,63,64,65,66,67,68,69,70,71,72,73,74,75,76,77,78,79,80,81,82,83,84,85,86,87,88,89,90,91,92,93,94,95,96,97,98,99,100,101,102,103,104,105,106,107,108,109,110,111,112,113,114,115,116,117,118,119,120,121,122,123,124,125,126,127,128,129,130,131,132,133,134,135,136,137,138,139,140,141,142,143,144,145,146,147,148,149,150,151,152,153,154,155,156,157,158,159,160,161,162,163,164,165,166,167,168,169,170,171,172,173,174,175,176,177,178,179,180,181,182,183,184,185,186,187,188,189,190,191,192,193,194,195,196,197,198,199,200,201,202,203,204,205,206,207,208,209,210,211,212,213,214,215,216,217,218,219,220,221,222,223,224,225,226,227,228,229,230,231,232,233,234,235,236,237,238,239,240,241,242,243,244,245,246,247,248,249,250,251,252,253,254,255,256,257,258,259,260,261,262,263,264,265,266,267,268,269,270,271,272,273,274,275,276,277,278,279,280,281,282,283,284,285,286,287,288,289,290,291,292,293,294,295,296,297,298,299,300,301,302,303,304,305,306,307,308,309,310,311,312,313,314,315,316,317,318,319,320,321,322,323,324,325,326,327,328,329,330,331,332,333,334,335,336,337,338,339,340,341,342,343,344,345,346,347,348,349,350,351,352,353,354,355,356,357,358,359,360,361,362,363,364,365,366,367,368,369,370,371,372,373,374,375,376,377,378,379,380,381,382,383,384,385,386,387,388,389,390,391,392,393,394,395,396,397,398,399,400,401,402,403,404,405,406,407,408,409,410,411,412,413,414,415,416,417,418,419,420,421,422,423,424,425,426,427,428,429,430,431,432,433,434,435,436,437,438,439,440,441,442,443,444,445,446,447,448,449,450,451,452,453,454,455,456,457,458,459,460,461,462,463,464,465,466,467,468,469,470,471,472,473,474,475,476,477,478,479,480,481,482,483,484,485,486,487,488,489,490,491,492,493,494,495,496,497,498,499,500,501,502,503,504,505,506,507,508,509,510,511,512,513,514,515,516,517,518,519,520,521,522,523,524,525,526,527,528,529,530,531,532,533,534,535,536,537,538,539,540,541,542,543,544,545,546,547,548,549,550,551,552,553,554,555,556,557,558,559,560,561,562,563,564,565,566,567,568,569,570,571,572,573,574,575,576,577,578,579,580,581,582,583,584,585,586,587,588,589,590,591,592,593,594,595,596,597,598,599,600,601,602,603,604,605,606,607,608,609,610,611,612,613,614,615,616,617,618,619,620,621,622,623,624,625,626,627,628,629,630,631,632,633,634,635,636,637,638,639,640,641,642,643,644,645,646,647,648,649,label
956,-118,-803,-517,-128,-204,-313,-92,-17,-264,-277,-27,-105,-345,83,457,-92,-290,216,287,152,182,139,232,204,-137,-10,270,32,-128,-12,-81,-152,143,154,-395,-204,444,150,-25,21,-565,-433,427,345,-612,-732,423,472,-801,-524,229,-51,653,1413,608,-197,-442,-427,167,330,-410,-479,-53,-296,-397,-70,-40,-109,17,81,77,126,165,178,193,204,193,137,77,79,83,42,17,30,53,75,98,124,131,122,126,113,85,96,109,107,139,182,204,223,223,201,225,266,259,272,494,934,1301,1448,1142,345,34,358,328,68,47,-40,-253,-287,75,515,152,-479,-66,659,449,-247,-749,-378,779,584,-801,-455,1084,835,-799,-1048,298,818,176,12,-107,-530,-92,146,-363,-53,158,-820,-971,532,541,-887,-122,784,-758,-1220,395,449,-704,-300,736,812,775,1061,511,-395,-247,193,68,-75,-38,-38,-12,58,88,109,128,148,201,262,279,270,242,223,227,199,152,107,21,-66,-96,-88,-81,-116,-197,-249,-214,-189,-210,-191,-174,-204,-176,-109,-77,-45,-32,-55,-70,-53,-17,8,12,-4,58,403,983,1433,1355,588,-158,-128,-27,-307,-324,-103,-10,-17,-38,100,236,116,75,206,120,-64,178,483,124,-204,120,277,-219,-268,590,547,-476,-573,30,122,178,481,-120,-1016,-247,715,-333,-889,92,2,-595,-403,-522,-603,-182,-360,-625,-408,-431,-343,38,247,562,917,629,-201,-642,-485,-446,-547,-464,-429,-519,-494,-388,-371,-352,-259,-201,-206,-191,-124,-83,-100,-100,-88,-124,-150,-135,-135,-146,-154,-169,-171,-152,-109,-75,-98,-165,-212,-219,-225,-234,-249,-294,-317,-272,-240,-283,-384,-491,-550,-605,-500,30,225,-343,-363,805,1488,502,-360,15,85,-290,15,214,-554,-913,-300,-197,-476,-322,-330,-343,-45,-277,-625,-210,161,62,-193,-451,-191,249,0,-305,-152,-111,-210,-169,-126,-152,-148,-152,-210,-244,-234,-223,-214,-208,-197,-169,-150,-154,-150,-141,-152,-178,-176,-167,-135,64,459,852,962,539,-73,-143,66,-2,-55,38,47,53,118,146,150,174,214,268,317,343,313,204,64,-23,-8,62,68,-68,-124,38,77,23,77,-68,-339,-223,-94,-313,-343,-186,-152,-311,-633,-491,-98,-403,-431,107,-416,-861,118,440,-524,-898,-481,34,816,1512,1162,-100,-466,137,85,-227,-100,-15,-55,-23,23,49,83,116,143,193,249,275,279,285,259,221,214,204,201,193,154,128,90,17,-6,12,-15,-81,-126,-143,-158,-176,-221,-272,-277,-255,-240,-221,-244,-324,-369,-348,-328,-311,-296,-290,-171,240,859,1115,388,-560,-436,-23,-294,-459,-311,-105,-27,-483,-429,528,459,-715,-603,883,1130,128,-12,425,348,30,8,279,298,70,216,436,240,94,266,373,287,264,292,253,227,219,163,116,109,94,85,98,94,68,49,66,100,109,96,186,502,951,1239,971,186,-264,-122,-126,-287,-219,-139,-169,-158,-118,-98,-58,-4,32,66,85,81,64,27,-19,-55,-70,-75,-79,-94,-128,-150,-141,-152,-204,-309,-352,-275,-403,-599,-262,60,-290,-582,-401,-397,-403,-36,-32,-393,-414,-223,-161,-191,-455,-829,-225,1095,1291,702,584,343,-131,-262,-268,-285,-275,-240,-92,-45,-85,19,68,6,36,113,128,68,6,21.0,12.0,-47.0,-38.0,-64.0,-182.0,-249.0,-255.0,-242.0,-195.0,-195.0,-242.0,-214.0,-133.0,-100.0,-94.0,-62.0,-23.0,-6.0,12.0,0
59,42,23,-2,-17,-2,14,23,29,14,0,14,40,49,57,66,72,83,59,12,-23,-70,-126,-145,-134,-134,-173,-247,-328,-369,-354,-333,-348,-307,-2,660,1172,679,-437,-816,-534,-540,-657,-536,-457,-472,-425,-365,-339,-294,-239,-198,-151,-113,-76,-23,32,72,98,119,158,215,275,311,343,380,380,337,271,185,98,44,8,-21,-25,-17,-10,12,36,46,55,72,89,117,143,158,164,168,187,207,192,160,140,138,143,158,179,190,181,166,170,192,215,230,232,196,136,121,121,83,10,-81,-128,-111,-64,-4,-14,-126,-187,-168,-179,-207,-230,-292,-343,-343,-350,-375,-380,-393,-420,-420,-269,243,999,1172,239,-679,-570,-284,-410,-444,-341,-343,-324,-245,-211,-194,-164,-140,-104,-51,-4,21,21,25,68,128,183,232,277,314,350,384,408,397,341,247,147,76,6,-106,-187,-217,-286,-337,-309,-286,-279,-267,-305,-363,-341,-307,-301,-273,-254,-258,-239,-207,-187,-153,-119,-119,-126,-100,-74,-57,-27,-6,-4,4,27,53,79,93,96,104,126,145,160,179,190,217,275,288,252,224,170,102,81,91,108,106,89,83,76,79,102,102,119,403,1068,1574,976,-356,-743,-252,-213,-405,-281,-200,-269,-307,-346,-361,-320,-284,-254,-226,-220,-217,-173,-108,-59,-23,-23,-44,-12,55,93,121,147,134,85,8,-91,-173,-239,-305,-333,-316,-299,-294,-273,-247,-222,-194,-170,-138,-102,-76,-64,-68,-64,-36,-14,4,17,25,51,74,81,93,108,113,119,138,149,166,190,164,104,89,123,181,213,198,190,185,149,145,183,202,187,151,138,158,177,179,136,59,130,578,1300,1565,610,-604,-506,40,-100,-213,-93,-192,-269,-187,-192,-232,-249,-311,-343,-303,-273,-252,-215,-205,-202,-183,-134,-74,-29,4,29,55,79,68,8,-104,-224,-292,-328,-350,-348,-348,-354,-335,-301,-314,-363,-367,-339,-331,-307,-256,-224,-211,-190,-170,-179,-183,-164,-151,-140,-128,-117,-91,-55,-40,-29,4,34,74,119,117,93,74,-4,-89,-93,-70,-61,-57,-102,-170,-175,-151,-149,-151,-81,299,1044,1456,696,-442,-521,-89,-166,-281,-132,-89,-136,-117,-102,-106,-79,-38,-10,12,34,46,81,136,187,215,209,200,213,234,243,222,185,126,14,-130,-249,-326,-401,-467,-478,-457,-442,-418,-397,-397,-386,-346,-305,-275,-249,-245,-237,-200,-162,-132,-106,-143,-222,-239,-196,-175,-168,-181,-247,-299,-290,-294,-305,-290,-294,-305,-264,-175,-98,-87,-96,-85,-81,-79,-61,-42,-27,-14,2,29,59,74,87,85,91,328,952,1617,1491,390,-378,-126,66,-155,-158,-29,-55,-61,12,38,46,96,130,143,170,185,179,196,232,254,275,314,352,390,431,450,444,425,380,296,196,83,-38,-143,-234,-305,-337,-388,-482,-525,-502,-480,-459,-457,-527,-585,-555,-510,-487,-459,-457,-476,-455,-405,-373,-343,-318,-318,-307,-271,-232,-209,-232,-296,-305,-254,-245,-267,-264,-264,-256,-179,-87,-66,-64,-44,-57,-74,-51,-12,12,23,29,49,76,104,128,132,128,296,880,1653,1758,803,-74,19,243,104,87,162,115,93,143,170,190,213,226,211,151,123,162,198,217,239,211,170,196,241,256,277,273,232,192,123,19,-66,-130.0,-213.0,-314.0,-401.0,-455.0,-499.0,-549.0,-572.0,-568.0,-563.0,-549.0,-514.0,-491.0,-482.0,-474.0,-455.0,-429.0,-397.0,-363.0,-341.0,2
-350,-350,-228,-245,-279,-275,-273,-247,-228,-241,-237,-168,-115,-166,-155,-57,-115,-213,-151,-119,-202,-303,-420,-516,-549,-572,-621,-653,-653,-643,-619,-581,-529,-472,-444,-425,-369,-303,-252,-209,-192,-175,-149,-126,-61,34,55,23,55,113,106,83,89,106,111,132,173,185,140,59,89,435,1115,1623,1106,-34,-348,-19,-57,-151,-12,0,-57,2,21,-27,-25,-12,-36,-38,0,42,70,89,81,23,2,42,59,14,-83,-224,-333,-380,-429,-467,-465,-476,-480,-433,-399,-378,-331,-309,-299,-249,-202,-181,-153,-119,-108,-108,-55,-6,-32,-38,27,87,117,134,130,121,96,36,23,61,72,72,66,44,25,-29,-89,119,781,1467,1249,168,-343,-21,44,-136,-66,-10,-66,-40,-17,-57,-68,-53,-42,-2,53,74,72,74,104,155,192,213,192,113,57,44,-6,-89,-164,-243,-252,-192,-170,-177,-230,-311,-318,-305,-288,-256,-234,-76,239,341,149,72,113,79,91,136,198,375,442,254,241,472,371,160,363,356,-98,-128,175,245,252,228,111,102,367,916,1555,1561,469,-322,162,506,-85,-557,-42,516,-151,-621,151,143,-591,-32,666,187,23,326,-111,-384,267,557,-25,-198,386,602,173,-145,-27,-252,-602,-185,72,-316,-504,-247,-27,-140,-382,-267,164,-91,-647,-222,205,-23,179,369,-147,-333,-40,10,29,89,55,119,183,134,104,68,-8,-6,55,64,38,32,32,36,49,81,318,929,1437,914,-260,-534,-96,-145,-335,-200,-136,-202,-166,-111,-130,-123,-76,-40,-4,-12,-74,-96,-51,-25,-8,32,4,-100,-123,-79,-117,-205,-267,-333,-422,-480,-469,-452,-474,-476,-435,-393,-358,-320,-271,-217,-181,-158,-192,-314,-367,-267,-170,-185,-194,-153,-91,68,177,106,83,66,-175,-211,215,155,-482,-395,414,668,226,162,390,205,369,739,49,-830,-497,164,-205,-482,-42,-228,-536,-138,243,164,-147,-102,371,382,-190,-335,331,790,305,-93,72,66,-128,173,540,38,-457,-170,38,-190,-288,-232,-314,-346,-252,-245,-326,-331,-299,-284,-228,-147,-106,-140,-202,-151,-21,32,25,46,96,100,64,17,-44,-91,-98,-93,-81,-51,-29,-14,-21,-64,10,408,1123,1544,843,-279,-422,-83,-190,-294,-164,-149,-187,-134,-96,-91,-59,-21,-4,23,51,46,66,123,160,183,217,243,262,269,192,32,-85,-136,-196,-222,-228,-273,-296,-275,-254,-202,-166,-228,-320,-350,-322,-230,-117,-128,-170,-76,-44,-132,-123,-44,-25,-70,-85,4,44,-32,-89,-89,-74,-49,-32,-14,0,-21,-17,209,803,1484,1354,234,-435,-149,-57,-258,-170,-83,-164,-143,-83,-130,-136,-108,-123,-81,-6,29,79,123,134,194,262,260,267,299,262,175,53,-81,-151,-194,-281,-373,-390,-348,-322,-331,-341,-390,-429,-382,-354,-388,-386,-356,-350,-301,-232,-215,-115,6,-85,-111,66,21,-160,-91,4,-32,-46,-12,98,173,-10,-175,14,352,835,1510,1373,91,-707,-378,-185,-493,-384,46,-17,-93,160,38,-239,-136,-162,-237,128,294,49,200,499,158,-96,271,437,254,194,153,12,-66,-76,-102,-132,-136,-104,-70,-70,-74,-119,-215,-237,-153,-96,-85,-61,-64,-74,-91,-173,-138,-4,-14,-34,17,23,40,14,-64,-55,-38,-79,-57,-6,-12,-38.0,-4.0,252.0,858.0,1450.0,1168.0,8.0,-568.0,-200.0,-100.0,-309.0,-256.0,-192.0,-239.0,-220.0,-183.0,-166.0,-126.0,-119.0,-130.0,0
-383,-467,-413,-203,-184,-398,-473,-231,-199,-253,330,602,-57,-216,255,92,-317,-154,-32,-289,-291,-98,-240,-355,-285,-379,-283,79,-47,-617,-563,-64,-407,-598,201,-51,-739,60,396,-456,-662,-145,53,-229,-216,-439,-570,885,1889,1097,94,-424,-426,-162,-360,-506,100,261,-218,-259,-94,-167,-235,-171,-105,-66,-36,-62,-100,-81,-4,57,34,0,-17,-85,-152,-188,-238,-257,-246,-229,-203,-227,-276,-276,-291,-319,-317,-304,-257,-192,-175,-156,-150,-199,-227,-210,-162,-150,-205,-212,-154,-145,-132,81,714,1391,1022,-242,-664,-124,-8,-205,-47,92,-79,-124,70,102,17,-15,-79,-8,216,240,10,107,330,-214,-105,1009,544,-295,476,448,-641,-278,392,-484,-988,-68,124,-546,-488,-396,-536,-117,62,-370,-482,-409,-497,-248,-188,-506,-396,-57,-64,-298,-332,-218,-229,-268,-32,587,1127,681,-503,-797,-188,-60,-255,-130,-2,-19,0,45,94,105,77,120,175,184,261,355,351,328,349,385,370,304,238,182,107,10,-49,-107,-160,-160,-212,-287,-295,-323,-377,-358,-317,-353,-409,-407,-366,-370,-420,-467,-514,-561,-581,-527,-366,-362,-553,-424,-113,8,439,1003,600,-531,-947,-467,-130,-244,-190,83,51,34,223,79,19,253,150,139,345,295,381,394,197,630,969,216,-300,379,291,-602,289,1153,-75,-1046,-150,660,-240,-503,467,25,-883,57,538,-570,-79,964,-45,-883,-443,-62,-49,-291,-409,-246,-315,-589,-649,-536,-75,720,814,-188,-859,-465,-173,-238,-100,-72,-173,-92,-17,-19,51,132,152,190,253,298,347,373,422,486,448,398,368,268,160,83,49,30,19,23,27,36,19,19,21,-32,-68,-40,8,32,19,42,68,-25,-137,-135,-102,-96,-105,-115,-109,-96,-107,-4,469,1185,1254,274,-501,-381,-190,-111,-72,-265,-190,117,-115,-604,-621,-188,201,30,-128,124,-100,-92,506,177,-90,553,396,-169,238,383,-396,-400,274,55,-476,-304,-186,-424,-70,139,-671,-690,83,-409,-660,413,353,-529,-343,-15,-253,-300,-132,-154,-229,-268,-313,-229,186,926,1280,555,-343,-334,-77,-186,-212,-49,15,27,79,109,150,218,244,259,319,398,484,518,508,546,617,585,413,295,280,184,51,-38,-139,-199,-208,-162,-105,-145,-195,-188,-210,-208,-150,-132,-188,-203,-158,-156,-199,-229,-212,-186,-364,-531,-173,40,-340,-268,463,1130,1252,300,-1065,-877,435,169,-801,111,973,-428,-1327,79,922,295,75,120,-111,128,780,673,276,488,482,482,722,458,154,-111,-355,583,1260,-257,-1134,75,469,-285,-274,51,-150,-289,-152,-120,-201,-167,-132,-199,-171,-141,-240,-246,-137,-141,-184,-169,-197,-169,186,834,1061,208,-746,-559,-85,-173,-190,19,34,-36,-10,21,12,30,109,167,184,227,293,347,377,373,379,377,349,364,310,139,15,-19,-45,-68,-75,-68,-60,-53,-62,-53,-36,-75,-94,-12,6,-165,-261,-49,-15,-205,-68,-124,-291,64,-115,-688,-210,340,272,962,1428,-160,-1625,-716,291,-345,-765,-257,-62,-467,-544,-47,199,-81,-291,42,351,25,2,478,111,-486,19,527,167,-68,45,-92,-283,-231,-173,-203,-188,-173,-192,-111,-40,-66,-79,-53,-23,-27,-15,36,2,-79,-102,-128,-141,-132,-143,-102,-81,-124,-124,34,-6.022857142857143,-37.245714285714286,-42.668571428571425,2.12,12.177142857142858,-37.69714285714286,-77.13714285714286,-78.13714285714286,-51.114285714285714,-27.045714285714286,-38.885714285714286,-62.76,-67.24571428571429,-61.10857142857143,-45.8,-35.95428571428572,-52.12571428571429,-48.34285714285714,-13.982857142857142,-6.6571428571428575,0
-213,-100,-192,-234,-192,-213,-232,-224,-228,-158,-85,-81,-49,-2,21,46,70,59,-44,-194,-249,-175,-36,-181,-675,-651,10,-126,-794,-495,145,-27,-860,-974,-126,-21,-408,292,882,-343,-905,739,959,-713,-408,1006,247,-771,102,747,147,-256,117,596,946,1459,1085,-222,-422,202,89,-158,17,14,-162,-175,-138,-140,-136,-177,-166,-42,-42,-145,-117,17,104,98,87,102,74,53,44,8,-36,-76,-164,-286,-299,-224,-215,-237,-228,-277,-301,-243,-234,-232,-153,-87,-59,-55,-132,-185,-130,-303,-542,-190,262,290,132,-239,-446,-284,32,751,1672,1813,653,-476,-311,21,-326,-220,478,440,-59,-61,61,-36,-106,-79,-59,-57,-70,-59,17,98,108,108,170,217,187,170,185,151,70,40,64,61,32,0,14,76,89,100,121,96,113,177,239,292,296,224,168,173,128,72,55,-32,-158,-192,-162,-249,-418,-207,531,1241,1044,-198,-745,-106,-102,-425,-38,36,-343,-277,-328,-690,-484,-126,-286,-610,-115,860,514,-316,-324,-489,-305,452,241,-194,68,21,-213,-91,-91,-220,-209,-220,-262,-207,-128,-113,-106,-79,-53,-12,72,166,194,198,222,222,196,166,126,93,83,55,-29,-132,-170,-177,-40,540,1279,1121,21,-512,-224,-202,-395,-324,-215,-226,-200,-158,-177,-196,-194,-205,-192,-153,-130,-100,-61,-53,-66,-113,-158,-143,-138,-170,-179,-190,-230,-254,-277,-309,-294,-254,-228,-198,-170,-164,-153,-113,-55,19,68,68,76,115,132,123,121,111,87,98,138,149,115,27,-6,318,1078,1548,845,-260,-326,66,-46,-140,17,19,-89,-117,-102,-106,-140,-170,-213,-279,-279,-222,-213,-220,-170,-140,-168,-151,-96,-102,-166,-258,-367,-431,-444,-446,-442,-437,-431,-399,-375,-375,-322,-241,-220,-187,-104,-66,-57,-10,21,10,-29,-61,-38,-8,-12,-14,2,14,-12,19,369,1065,1388,519,-593,-474,25,-158,-303,-126,-93,-160,-136,-29,89,21,-115,-83,-72,-209,-241,-8,254,181,-190,-222,181,134,-202,-100,87,-61,-459,-777,-602,-183,-343,-766,-813,-596,-469,-743,-649,-164,-352,-820,-388,303,-222,-920,-264,482,-149,-843,-145,427,-318,-610,-23,108,74,608,1499,1491,173,-559,-100,42,-198,-96,23,-34,6,106,130,145,179,232,296,348,378,422,497,549,572,585,568,546,551,563,551,474,382,348,337,301,267,260,267,267,277,264,168,53,44,115,132,136,160,104,17,-32,-70,-74,-68,-104,-121,-115,-164,-305,-339,217,1219,1469,525,-232,-87,-8,-252,-241,-111,-147,-202,-128,-79,-170,-49,228,134,-10,111,44,-64,117,168,-6,185,414,-4,-151,333,420,-76,-311,106,232,-303,-358,145,74,-264,-164,-74,-164,-328,-294,-27,111,181,-83,-155,106,-228,-294,55,-132,-181,111,38,-262,-299,-113,309,1040,1204,168,-698,-363,-29,-256,-271,-93,-85,-87,-12,10,42,91,96,119,175,228,271,305,333,346,378,420,410,401,442,420,320,234,181,143,128,123,100,61,53,85,104,96,76,59,70,100,151,222,202,91,36,-10,-93,-93,-49,-83,-145,-151,-237,-290,138,869,1392,1221,53,-944,-766,-350,-442,-341,119,-160,-937,-715,-158,-393,-418,138,83,-309,34,91,-566,-480,198,-102,-489,-108,-198,25,375.0,-281.0,-450.0,-164.0,-352.0,-504.0,-455.0,-256.0,-185.0,-378.0,-401.0,-275.0,-267.0,-269.0,-205.0,-155.0,-151.0,-145.0,-119.0,-117.0,0
223,-169,-199,283,90,-405,-482,-555,-145,128,-741,-1033,-70,570,-295,-1220,-111,585,-467,-486,240,-280,-962,-649,-347,-403,-186,-66,-482,-767,-551,-156,433,894,317,-731,-774,-293,-317,-379,-210,-150,-139,-19,107,152,195,270,315,308,270,253,280,317,345,364,388,418,416,407,424,383,276,229,255,242,197,197,223,216,229,276,289,300,347,400,428,403,400,435,411,370,349,347,364,340,298,261,208,147,229,741,1584,1773,645,-390,-167,130,-60,-70,-32,-130,-100,-4,10,40,102,96,96,150,201,248,259,192,177,300,347,259,283,289,-25,-83,349,220,-105,210,70,-544,-306,313,124,-128,379,278,-553,-186,669,280,-152,-6,-345,-611,-145,-51,-454,-336,-111,-169,-186,-345,-394,135,1119,1434,83,-889,-298,-175,-636,-551,-405,-501,-506,-480,-510,-463,-383,-375,-364,-310,-295,-291,-225,-152,-145,-177,-154,-105,-111,-171,-238,-328,-443,-508,-518,-521,-510,-521,-491,-422,-407,-398,-362,-310,-238,-205,-195,-145,-107,-130,-143,-122,-147,-218,-235,-182,-130,-160,-212,-109,240,930,1528,1005,-201,-486,-79,-55,-139,-25,10,-8,34,79,19,-98,4,64,-229,-12,604,229,-321,154,261,-313,-255,-105,-47,197,-349,-651,-171,-454,-821,-731,-679,-416,-214,-291,-551,-656,-632,-501,49,-122,-606,-130,-195,-649,-15,433,-8,-304,-272,-70,143,17,-229,-162,255,930,1235,523,-291,-255,-47,-130,-126,8,72,47,72,175,231,242,280,330,338,317,315,319,319,334,330,315,343,364,319,201,64,-23,-147,-300,-321,-289,-323,-323,-293,-355,-437,-385,-304,-289,-250,-190,-154,-139,-124,-102,-102,-120,-105,-49,-53,-98,-25,32,-23,96,651,1385,1335,132,-666,-227,94,-98,-47,124,113,85,132,188,248,304,302,270,283,321,362,409,422,321,143,165,381,235,-126,70,212,-413,-529,203,203,-413,-525,-261,-27,-100,-731,-868,244,621,-300,-396,98,-115,-156,47,-473,-596,167,197,-529,-493,152,-115,-656,-4,778,1014,1044,130,-847,-544,-212,-390,-285,-100,-115,-62,21,-115,-283,-132,165,216,139,289,362,100,23,210,413,551,542,437,30,-263,96,139,-441,-559,-287,-396,-527,-345,-285,-403,-403,-325,-321,-319,-242,-167,-137,-143,-162,-150,-124,-137,-143,-124,-100,-60,-25,-21,-10,197,821,1383,930,-173,-491,-126,-87,-171,-92,-77,-150,-220,-235,-201,-175,-128,-51,-42,-77,-53,10,57,109,150,126,42,19,182,261,-122,-508,-325,-283,-793,-634,167,-49,-769,-476,-182,-786,-724,87,-30,-847,-988,-17,636,-81,-868,-795,-321,-229,-630,-130,692,-283,-926,244,866,1067,1329,197,-1110,-585,201,-132,-383,15,162,-568,-909,169,461,-630,-463,-21,-561,-308,66,-332,-407,-152,-145,-195,-122,-130,-197,-205,-250,-293,-291,-310,-295,-231,-180,-139,-96,-79,-45,17,6,-30,0,6,-27,-87,-120,-83,-87,-72,12,23,-2,66,135,100,158,531,1250,1728,1074,-38,-152,255,188,70,231,298,235,270,358,370,360,400,448,467,443,304,313,645,540,98,360,596,235,355,407,-199,-143,87,-636,-1115,-476,302,122,-656,-677,-293,-508,-514,-79,-244,-838,-385,488,-85,-551,30,-461,-1408,-521,911,317,-1059,-681,295,60,34,1022,1132.0,-72.0,-709.0,-274.0,-51.0,-203.0,-100.0,42.0,-17.0,-15.0,124.0,188.0,158.0,190.0,300.0,416.0,497.0,533.0,587.0,673.0,0
-311,-337,-401,-412,-348,-311,-303,-301,-361,-397,-316,-254,-256,-228,-211,-239,-252,-230,-190,-153,-158,-202,-187,-192,-331,-264,179,751,1380,1454,437,-378,-143,10,-262,-273,-36,70,-34,-123,-57,-2,-17,27,104,136,96,119,296,264,74,134,305,469,495,264,170,85,-243,-358,-243,-205,-215,-237,-414,-583,-380,-121,-245,-388,-279,-307,-301,-215,-516,-465,36,-102,-373,-326,-299,-190,-185,-226,-173,-166,-380,-414,61,10,-367,-130,-44,-205,115,924,1602,1153,93,-134,93,-29,-106,17,-4,-57,19,64,51,76,113,128,164,217,258,307,367,382,378,390,380,305,196,126,85,29,-38,-108,-185,-277,-341,-320,-273,-264,-281,-290,-260,-215,-190,-160,-115,-134,-155,-100,-40,2,25,-12,-76,-81,-55,-72,-136,-237,-322,-320,-277,-260,-237,-252,-343,-309,102,867,1375,715,-531,-662,-79,-162,-352,-85,14,-168,-211,-55,4,-51,53,126,-53,-61,213,318,249,324,378,194,64,162,311,277,44,-68,-32,-185,-369,-303,-356,-420,-275,-519,-677,-126,-49,-514,-314,53,-102,-286,-337,-414,-185,324,324,-130,-228,-79,38,173,81,-104,-70,-46,-160,-194,-134,-121,-93,160,754,1198,634,-397,-493,-91,-179,-292,-138,-76,-83,-21,4,-19,4,51,76,108,128,123,153,209,228,249,281,296,296,262,205,128,-14,-185,-247,-232,-262,-279,-264,-281,-305,-288,-234,-217,-194,-155,-170,-162,-111,-87,-40,27,38,14,6,12,2,-51,-130,-198,-200,-166,-217,-269,-177,-149,-258,-155,339,1149,1544,645,-484,-431,-57,-217,-316,-162,-140,-173,-102,-51,-51,-29,-14,-36,-36,-10,27,79,113,145,185,192,190,215,226,166,51,-57,-143,-220,-279,-301,-320,-350,-335,-299,-314,-337,-307,-262,-245,-243,-224,-190,-179,-183,-160,-132,-108,-79,-83,-121,-153,-145,-100,-70,-21,38,-14,-42,79,102,173,783,1529,1322,267,-220,8,-68,-269,-106,17,-38,-32,-59,-179,-205,-121,-64,-21,0,-138,-284,-173,-6,17,25,83,106,36,-49,-51,-25,-104,-311,-450,-422,-397,-450,-420,-284,-303,-450,-455,-390,-393,-363,-314,-318,-328,-307,-258,-200,-155,-136,-115,-93,-113,-126,-121,-145,-158,-140,-102,-46,-29,-19,-14,17,408,1230,1708,954,-241,-328,136,51,-104,-36,-76,-149,-108,-59,-68,-126,-166,-158,-158,-98,19,38,6,38,64,46,34,14,-38,-89,-123,-108,-46,-130,-356,-397,-346,-495,-521,-358,-346,-316,-260,-414,-469,-232,-247,-630,-593,-64,29,-237,-108,87,-89,-243,-134,-61,-173,-153,23,-8,-147,-87,-4,-66,34,576,1394,1546,476,-314,61,224,-121,-91,51,-68,-138,-113,-117,-83,-23,0,-8,-44,-70,-29,6,34,91,91,19,21,64,32,-29,-83,-147,-187,-196,-213,-232,-273,-339,-343,-322,-388,-444,-418,-401,-375,-343,-350,-337,-292,-247,-207,-196,-168,-100,-87,-123,-136,-151,-149,-102,-61,-53,-44,-21,-29,-27,173,741,1471,1523,585,-143,-61,-6,-143,-106,-51,-68,-29,46,96,38,-29,158,365,279,247,352,179,-21,151,230,17,55,243,72,-224,-273,-209,-187,-134,-145,-420,-619,-369,-245,-621,-576,-126,-384,-662,-258,-254,-589,-378,-138,-281,-254,-66,-89,-136,-96,-91,-113,-115,-106,-100,-81,-29,14,21,19,23,83.0,425.0,1159.0,1636.0,1070.0,121.0,-46.0,147.0,2.0,-102.0,51.0,113.0,55.0,102.0,200.0,185.0,158.0,237.0,281.0,254.0,1
-516,-605,-665,-672,-642,-335,346,584,-53,-516,-309,-109,-44,121,202,116,-90,-391,-551,-526,-516,-512,-495,-509,-372,-118,-97,-111,107,209,123,190,300,221,256,602,795,805,1079,1333,1182,965,956,928,726,409,111,32,155,335,437,451,551,733,830,798,756,765,730,656,593,505,372,286,258,202,153,134,90,-55,-283,-293,195,628,286,-244,-256,-169,-251,-279,-293,-272,-155,-95,-202,-335,-349,-372,-474,-519,-523,-695,-1093,-1214,-849,-714,-951,-1040,-1028,-1105,-1124,-975,-782,-698,-677,-621,-598,-605,-546,-449,-449,-565,-616,-558,-570,-723,-823,-756,-605,-444,-388,-404,-195,86,16,-55,153,258,265,402,523,521,491,558,777,872,635,572,1063,1338,747,137,232,381,309,428,523,430,500,663,644,591,588,526,442,402,342,204,102,118,155,153,153,139,121,111,69,-9,-58,-58,-41,-9,37,76,72,-44,-151,-116,-74,-123,-148,-104,-46,-23,-44,46,293,328,121,-76,-395,-705,-733,-716,-807,-847,-740,-465,-276,-395,-570,-619,-512,-34,521,379,-141,-123,146,93,-186,-263,11,88,-118,-204,-258,-372,-395,-386,-414,-356,-281,-372,-377,-162,-11,-6,-114,-242,-249,-41,209,176,53,11,-65,67,484,654,344,60,86,260,516,691,791,816,891,1180,1247,1019,921,912,770,614,528,425,346,328,290,265,260,216,167,132,53,4,260,812,958,363,-60,44,-23,-174,-60,-53,-118,-27,-25,-86,-44,-16,-55,-65,-72,-109,-128,-162,-244,-316,-395,-456,-449,-444,-467,-484,-528,-586,-630,-681,-733,-812,-891,-875,-840,-809,-721,-667,-649,-551,-453,-442,-449,-451,-486,-535,-574,-621,-649,-600,-551,-577,-505,-316,-232,-193,-125,-111,-83,-39,9,283,870,1212,770,165,97,195,144,90,104,214,337,323,202,237,640,919,763,670,763,719,607,605,607,588,654,684,574,479,479,472,407,346,363,432,467,449,418,400,358,267,209,221,214,174,137,55,-72,-121,-97,-102,-114,-134,-174,-204,-293,-428,-519,-600,-661,-656,-674,-744,-809,-830,-600,-4,323,-183,-737,-663,-516,-488,-300,-139,-160,-188,-176,-214,-256,-209,-160,-202,-188,-20,53,-34,-27,39,-13,-53,-67,-169,-146,9,41,-34,18,209,300,246,116,79,239,244,55,144,367,388,404,474,521,560,521,523,654,616,349,260,372,370,314,332,316,269,304,349,286,151,48,162,663,1103,784,146,34,134,27,-37,-76,-179,-121,41,93,79,93,104,109,137,162,144,86,11,-100,-276,-500,-756,-975,-1091,-1182,-1298,-1361,-1335,-1212,-875,-346,-41,-11,74,86,-104,-197,-116,-88,-116,-95,-109,-125,2,37,-132,-141,-53,-121,-62,95,58,16,76,102,151,232,155,-65,-53,530,1275,1289,649,297,346,221,-62,-130,-39,-20,-58,-107,-200,-160,130,276,90,-23,151,353,360,300,297,272,237,269,293,269,232,200,211,349,407,53,-188,200,565,484,397,453,388,223,176,202,169,123,88,51,97,134,25,-88,-139,-204,-288,-404,-488,-614,-793,-747,-770,-1182,-1380,-856,-146,-193,-893,-1261,-1105,-942,-842,-667,-735,-1021,-989,-809,-728,-549,-521,-812,-856,-491,-367,-523,-402,-218,-269,-239,-139,-139,-153,-167,-249,-267,-118,-102,-221,-144,-48,-88,-27,27.0,13.0,48.0,93.0,228.0,300.0,116.0,-2.0,53.0,102.0,174.0,272.0,276.0,225.0,209.0,230.0,239.0,251.0,246.0,195.0,0
-223,-205,-182,-135,-120,-98,-49,-36,-75,-87,-53,-19,-12,-66,-132,-2,210,143,-47,-32,-45,-347,-394,45,8,-433,-289,205,810,1389,904,-385,-859,-450,-173,-98,40,32,-375,-765,-377,145,-175,-98,516,15,-482,-32,72,-122,147,478,182,-366,-308,4,25,259,124,-495,-379,-388,-576,-171,-325,-611,-291,-272,-448,-53,120,-390,-32,551,-34,-338,47,40,-87,70,98,-40,-40,12,-34,-87,-94,-100,-113,-184,-238,-19,587,1145,750,-433,-829,-308,-169,-355,-257,-124,-147,-132,-79,-64,-34,23,70,102,135,182,229,278,325,353,347,323,353,413,413,336,205,87,38,-8,-167,-270,-218,-274,-488,-613,-656,-658,-287,150,-57,-321,-145,-422,-720,-128,169,-280,-527,-338,-68,-77,-390,-559,-317,-210,-319,-315,-355,-231,409,1160,741,-866,-1248,-263,-265,-611,-169,10,-137,-92,-115,-175,-96,-34,-42,-38,4,70,113,115,115,165,214,214,205,212,186,109,-6,-115,-177,-233,-340,-443,-450,-426,-435,-441,-433,-458,-518,-510,-471,-456,-407,-385,-431,-463,-431,-364,-343,-390,-400,-355,-353,-379,-368,-310,-257,-255,-210,64,718,1333,904,-272,-613,-203,-186,-298,-137,-81,-132,-66,6,32,81,130,167,192,229,289,336,370,390,385,426,458,491,602,518,265,325,503,330,92,94,81,-96,-113,15,-197,-195,604,677,-325,-418,167,34,-259,175,506,-107,-385,8,-94,-302,-113,-139,-422,-454,-518,-675,-375,-253,-390,199,1275,1449,180,-862,-759,-722,-677,-216,-182,-295,-96,-124,-353,-409,-274,-98,-23,-6,53,143,210,244,265,319,383,400,411,405,334,240,145,94,100,85,40,23,40,12,-47,-47,-23,0,27,-6,-32,17,64,81,60,68,126,117,53,23,-6,-47,-30,-30,-139,-244,-280,-295,-87,572,1222,709,-784,-1344,-741,-482,-814,-769,-57,-137,-967,-351,548,-289,-934,-295,233,285,265,-162,-669,49,810,199,-100,349,480,428,165,-330,-261,456,488,-210,-383,-405,-576,30,645,100,-358,-122,-68,-143,-53,0,-19,-6,34,77,102,79,25,-2,21,55,27,-32,-40,-47,-98,-60,323,1091,1451,516,-681,-626,-165,-321,-454,-332,-343,-388,-304,-238,-233,-184,-128,-122,-79,12,79,111,180,291,263,192,310,392,325,308,268,124,38,15,-36,-12,42,-19,0,162,130,-40,-105,-126,-10,92,-83,-15,162,-259,-315,542,600,-192,-51,340,-285,-383,411,188,-411,-328,-345,-55,849,1254,763,2,-516,-651,-396,-225,-328,-259,-255,-289,-8,64,-158,-188,-109,-98,-68,0,25,-15,-17,62,115,126,124,81,79,94,-2,-115,-158,-188,-210,-216,-169,-117,-139,-150,-81,-23,-34,-23,-4,-42,-40,38,62,30,62,98,47,-17,-15,-6,-8,25,42,-4,-38,-62,-79,201,975,1556,892,-383,-677,-317,-261,-274,-340,-441,-182,53,-158,-263,77,113,-177,102,446,17,-195,293,293,85,606,729,188,304,641,85,-533,-379,-180,-516,-525,270,313,-521,-581,-233,-388,-328,40,-36,-205,-109,-85,-117,-79,-70,-68,-49,-105,-165,-124,-38,-4,-21,-38,-36,-47,-60,175,874,1395,851,-229,-533,-250,-304,-426,-283,-214,-253,-184,-83,-49,-62,-51,36,102,105,152,231,255,253,300,381,394,351,345,366.0,336.0,255.0,195.0,102.0,-79.0,-169.0,-115.0,-115.0,-150.0,-100.0,-139.0,-310.0,-268.0,-113.0,-220.0,-220.0,137.0,225.0,-227.0,0
-484,-512,-510,-478,-476,-502,-527,-540,-525,-493,-461,-427,-405,-410,-399,-358,-320,-288,-262,-262,-262,-239,-205,-158,-91,-85,-147,-162,-126,-123,-136,-138,-145,-143,-111,-79,-72,-96,-128,-132,-123,-49,305,995,1459,980,72,-136,79,2,-91,-8,12,6,61,96,93,68,2,-19,19,40,53,64,14,-19,29,79,93,104,100,108,138,158,155,130,40,-83,-168,-224,-269,-279,-275,-279,-275,-258,-239,-209,-177,-168,-198,-269,-322,-322,-333,-373,-395,-393,-386,-369,-361,-390,-433,-433,-410,-382,-352,-326,-324,-328,-307,-273,-239,-211,-196,-200,-187,-151,-119,-87,-68,-70,-68,-36,-2,23,29,-38,-130,-132,-93,-59,-12,-38,-147,-177,-130,-132,-149,-145,-149,-140,-106,-70,-46,-32,-29,-23,-10,66,410,1085,1533,1046,147,-38,168,21,-143,-72,-44,-64,-17,17,19,17,-4,-23,-6,10,23,40,55,81,126,162,200,245,273,292,322,326,286,217,113,-25,-140,-215,-271,-299,-316,-331,-328,-320,-307,-279,-262,-275,-294,-290,-269,-241,-230,-284,-358,-363,-326,-305,-284,-305,-386,-416,-373,-339,-314,-286,-284,-288,-260,-222,-187,-147,-134,-179,-215,-183,-138,-115,-96,-102,-123,-102,-59,-27,-8,-10,-8,23,57,85,108,108,96,111,138,179,239,279,264,256,281,286,264,230,183,158,162,170,170,170,164,140,98,113,382,997,1527,1187,239,-123,64,-29,-249,-288,-326,-363,-333,-316,-335,-380,-437,-429,-384,-369,-343,-307,-290,-269,-267,-288,-258,-198,-185,-196,-183,-162,-143,-143,-187,-262,-324,-371,-397,-393,-375,-365,-341,-309,-277,-232,-194,-175,-155,-130,-100,-59,-21,0,8,21,44,74,108,130,126,91,61,74,102,117,117,108,115,138,166,190,194,183,183,194,183,164,158,134,113,123,140,151,140,61,-29,-36,-12,-57,-143,-247,-354,-408,-403,-386,-388,-420,-448,-455,-455,-446,-420,-410,-418,-405,-371,-335,-309,-296,-305,-258,61,734,1241,822,-98,-337,-87,-130,-226,-132,-100,-123,-85,-66,-87,-79,-42,-23,-2,38,81,108,145,190,224,267,324,369,405,446,476,482,487,463,397,322,249,177,128,98,83,93,85,34,-10,-38,-79,-81,-70,-130,-211,-213,-181,-162,-151,-205,-314,-352,-318,-301,-286,-260,-252,-252,-232,-198,-170,-155,-177,-215,-226,-230,-243,-260,-299,-333,-341,-356,-384,-378,-365,-380,-380,-343,-314,-288,-267,-269,-269,-241,-207,-179,-158,-149,-128,-64,-12,-6,6,14,-17,-38,-6,36,51,57,61,57,32,-40,-117,-117,91,649,1260,1119,220,-245,-53,-102,-320,-249,-168,-209,-194,-198,-269,-258,-192,-173,-151,-108,-87,-57,-2,40,85,140,187,232,284,299,277,281,296,273,222,153,79,29,-4,-38,-55,-53,-42,-14,12,10,-21,-40,-32,-14,0,6,4,4,14,36,59,70,66,59,59,25,-59,-130,-179,-228,-243,-228,-220,-217,-226,-249,-247,-224,-200,-179,-173,-192,-194,-164,-136,-111,-117,-198,-267,-243,-202,-187,-181,-234,-320,-316,-271,-279,-314,-335,-356,-341,-284,-209,-147,-140,-160,-143,-117,-115,-102,-70,-61,-57,-25,12,38,53,55,57,220,743,1407,1431,578,-32,134,234,79,74,76,-42,-89,-38,-14,-10,21,53,68,98,138,166,196,239,275,305,352.0,397.0,431.0,476.0,508.0,516.0,523.0,514.0,465.0,397.0,296.0,119.0,-55.0,-136.0,-166.0,-211.0,-284.0,-375.0,-440.0,-437.0,2
467,-67,-235,-44,-48,-104,-48,-53,-83,-32,9,11,18,6,4,39,69,81,83,67,69,109,137,153,155,97,41,79,132,132,114,81,60,58,44,20,-58,-176,-172,-88,-67,-65,-58,-72,-53,-11,9,16,6,-9,9,44,60,62,46,23,30,20,-41,-76,-72,-79,-65,-32,-13,-16,-32,-39,-18,9,20,20,4,0,20,44,51,46,25,-4,-23,-25,-51,-93,-100,-74,-41,-18,-16,-44,-144,-244,-216,-146,-144,-153,-139,-125,-109,-81,-79,-137,-223,-176,172,612,526,0,-153,9,-11,-65,-62,-158,-195,-118,-83,-79,-55,-48,-39,-48,-72,-55,-27,-20,-4,20,41,67,76,83,107,116,125,139,132,116,100,65,37,23,2,-4,9,13,18,32,30,25,6,-23,-16,-9,-46,-60,-86,-155,-148,-104,-109,-95,-65,-62,-55,-44,-44,-27,-6,-11,-9,-27,-65,-72,-86,-125,-121,-104,-109,-93,-83,-97,-137,-223,-260,-225,-246,-279,-295,-374,-386,-290,-242,-230,-202,-197,-186,-148,-148,-162,-151,-130,-107,-76,-62,-65,-69,-76,-109,-165,-86,279,635,418,-72,-95,72,-13,-88,-25,11,-16,-74,-118,-97,-55,-30,-2,18,6,2,37,72,88,95,88,86,116,153,176,174,141,102,88,97,79,20,-44,-76,-86,-118,-132,-134,-237,-311,-230,-162,-165,-153,-153,-148,-109,-81,-88,-125,-165,-181,-176,-153,-132,-144,-167,-151,-111,-93,-83,-95,-114,-97,-65,-53,-65,-123,-162,-123,-79,-67,-60,-109,-183,-158,-93,-69,-41,-27,-48,-37,-2,-4,-23,-32,-32,-13,16,27,27,11,-6,-27,-88,-88,179,614,593,23,-211,4,18,-88,-37,13,9,34,48,23,23,55,81,72,-11,-100,-69,-2,13,30,46,44,34,34,60,81,69,62,69,65,27,-55,-128,-137,-139,-139,-109,-81,-111,-179,-188,-130,-100,-121,-151,-158,-167,-183,-169,-155,-160,-148,-134,-121,-100,-100,-102,-86,-76,-69,-51,-53,-69,-97,-118,-90,-62,-72,-60,-34,-32,-23,-4,-11,-11,4,6,23,55,65,69,79,72,55,-23,-125,-104,-41,-51,-48,-25,-30,-20,-25,-125,-228,-65,432,709,300,-144,-58,39,-88,-137,-107,-100,-86,-67,-44,-11,11,13,20,30,46,74,90,90,90,100,121,148,153,116,83,76,58,39,44,25,-32,-67,-62,-58,-69,-83,-93,-79,-48,-23,-13,-20,-27,-16,-11,-30,-51,-90,-132,-116,-79,-69,-76,-141,-244,-246,-172,-160,-209,-239,-221,-179,-148,-123,-109,-123,-123,-93,-109,-172,-181,-155,-153,-121,-79,-60,-65,-81,-76,-32,16,48,46,13,13,41,44,44,48,13,-30,-27,9,30,13,-30,-93,-123,46,505,784,402,-62,4,134,41,16,53,48,67,107,114,95,79,100,132,148,151,139,121,139,160,137,107,109,118,137,169,176,139,90,74,79,55,-37,-193,-318,-323,-263,-225,-204,-186,-186,-174,-137,-102,-83,-81,-88,-86,-86,-95,-100,-121,-183,-216,-176,-139,-139,-148,-148,-139,-118,-93,-88,-100,-102,-83,-65,-44,-37,-48,-44,-32,-18,2,6,-2,2,13,20,37,34,23,37,53,39,20,16,23,25,16,13,37,37,30,44,48,48,34,-37,-114,-162,-100,265,667,428,-167,-230,-34,-95,-137,-65,-48,-51.0,-23.0,0.0,13.0,2.0,-13.0,2.0,27.0,37.0,44.0,51.0,72.0,95.0,100.0,109.0,121.0,125.0,146.0,169.0,167.0,2
81,109,83,55,96,161,178,154,161,317,693,1183,1469,1190,421,-4,208,283,100,75,58,-30,-21,32,36,-10,-73,-75,-17,32,53,42,4,-21,-58,-124,-212,-279,-363,-474,-300,-103,-391,-567,-459,-345,135,223,-644,-921,-8,406,-307,-885,-307,556,-51,-1003,-113,891,4,-842,-242,440,204,88,872,1314,1119,913,227,-605,-300,558,358,-143,122,-49,-635,174,960,113,-109,442,244,45,189,629,545,-113,608,1072,-27,-193,459,253,-169,-98,-83,-210,-197,-180,-266,-330,-324,-302,-275,-253,-259,-266,-236,-178,-141,-137,-143,-163,-184,-212,-247,-262,-214,38,541,1001,1007,421,-204,-244,-98,-191,-236,-165,-169,-227,-257,-292,-255,-122,-111,-208,-64,244,167,51,53,-27,608,874,81,236,638,174,317,369,-328,12,672,294,178,358,-283,-556,176,253,-163,163,34,-386,180,201,-345,-45,118,-270,-255,-103,-163,103,605,846,672,77,-416,-382,-352,-491,-457,-369,-375,-354,-296,-296,-302,-272,-264,-253,-212,-193,-191,-184,-180,-165,-143,-143,-135,-88,-75,-116,-128,-141,-219,-238,-163,-176,-272,-397,-403,-221,-298,-534,-257,116,-236,-702,-333,139,-90,-472,-487,-62,169,-259,-154,956,1512,790,-113,-408,-457,-285,77,-496,-992,51,204,-861,-638,184,146,-268,-348,-238,-259,-324,-309,-281,-307,-348,-350,-313,-298,-313,-307,-275,-281,-290,-247,-227,-223,-156,-116,-146,-148,-122,-116,-94,-49,-19,40,92,75,75,111,137,156,154,143,212,511,1024,1417,1390,816,116,53,259,163,109,223,259,219,150,85,68,143,158,-42,122,644,474,-184,-77,367,-32,-53,713,431,-335,-391,-152,-174,-326,-45,-253,-906,-451,12,-648,-724,2,-131,-541,-300,-193,-358,-305,-131,-113,-208,-214,-161,-128,-120,-62,216,713,1102,1115,644,25,-88,77,32,-27,0,-30,-60,-21,30,68,94,103,131,186,227,236,247,240,208,204,232,262,270,257,244,229,178,120,100,58,-42,-126,-266,-371,-141,4,-401,-786,-650,-416,-446,-412,-294,-339,-360,-406,-294,-193,-739,-758,403,717,307,921,534,-1091,-833,68,-27,83,10,-487,-449,-17,120,-66,-36,141,-10,-156,-79,-96,-180,-141,-90,-105,-116,-88,-58,-66,-75,-58,-79,-96,-62,-45,-36,-10,-38,-83,-62,-19,-10,2,34,64,100,126,51,-47,-49,-40,-62,-53,-2,229,739,1267,1433,938,42,-292,-111,-363,-601,-221,-201,-599,-302,45,-163,-60,34,-275,-283,-107,126,429,-27,-442,311,294,-857,-356,766,34,-558,-191,-446,-554,212,474,-23,-70,-36,-51,55,-410,-461,103,23,-244,-150,27,290,268,-23,-49,62,73,47,178,689,1362,1602,1127,262,-191,-73,-30,-120,-36,45,4,17,94,73,0,0,23,40,85,94,23,-36,-40,-47,-45,-4,36,30,6,8,30,23,-15,-32,-135,-206,83,302,88,-68,-40,-8,58,0,-109,32,113,-165,-262,21,171,-77,-515,-298,290,81,283,1456,1467,-36,-786,152,433,-786,-560,601,-446,-1252,-225,-199,-259,262,-571,-552,713,-55,-874,287,698,-410,-758,446,792,-201,12,586,-49,-255,197,85,-143,4,62,-32,6,90,58,-23,-12,70,88,45,32,-2,-62,-66,-32,-30,-66,-96,8,384,915,1252,992,120,-466,-309.0,-212.0,-382.0,-371.0,-296.0,-315.0,-313.0,-279.0,-257.0,-240.0,-242.0,-311.0,-481.0,-610.0,-429.0,-148.0,-167.0,-257.0,-236.0,-158.0,0
-298,-227,-247,-253,-137,-182,-257,-49,75,-47,30,247,180,-38,32,333,468,236,-60,167,472,171,15,324,137,-397,-272,176,42,-418,-354,-17,-98,-191,-58,-143,-201,2,30,-70,-64,6,79,-40,-139,-133,-128,36,103,-25,-100,-122,-75,-98,-221,-174,-100,-195,-240,-180,-62,251,751,1132,1052,363,-311,-279,-111,-229,-232,-118,-107,-122,-98,-66,-23,27,68,94,107,111,143,193,232,251,216,135,90,109,100,34,-42,-135,-219,-225,-204,-212,-210,-204,-223,-219,-180,-154,-135,-111,-107,-100,-85,-96,-126,-122,-141,-232,-240,-225,-399,-395,-133,-208,-298,10,55,-294,-365,-165,-180,-356,-365,-75,212,251,588,1226,1069,156,-281,-223,-285,-199,-122,-354,-352,-79,105,126,-36,-219,-116,182,262,189,212,272,290,296,330,343,309,281,283,279,208,58,-34,-8,12,4,4,-42,-98,-77,-42,-23,2,-6,-45,-60,-68,-124,-204,-240,-247,-255,-244,-210,-165,-139,-141,-126,-105,-126,-167,-197,-229,-242,-225,-204,-201,-152,98,539,919,1024,623,-141,-453,-229,-165,-307,-414,-399,-137,30,-174,-210,6,-6,-42,105,79,-21,118,264,167,96,279,412,247,90,212,328,165,-103,-75,184,51,-259,-98,2,-270,-345,-167,-105,-204,-221,-174,-150,-113,-133,-204,-257,-283,-287,-249,-244,-257,-111,-25,-167,-238,-191,-216,-249,-219,-216,-238,-210,-42,345,814,1067,859,137,-399,-238,-107,-281,-268,-154,-161,-146,-81,-73,-60,0,40,68,131,174,176,204,262,300,320,326,311,300,294,266,229,197,154,133,133,103,73,85,58,-32,-77,-85,-118,-135,-156,-236,-311,-311,-296,-320,-343,-373,-423,-365,-251,-242,-165,-75,-174,-298,-313,-208,-180,-320,-302,-206,-317,-292,148,623,949,1078,517,-341,-446,-163,-204,-320,-322,-264,-25,135,-90,-285,-90,109,34,83,251,206,161,229,270,277,307,384,406,333,249,195,163,105,40,32,49,58,51,21,-15,-27,-25,-8,25,49,27,-60,-137,-141,-126,-124,-143,-210,-255,-221,-171,-141,-135,-178,-234,-251,-275,-330,-358,-354,-365,-363,-214,148,565,842,726,79,-431,-279,-128,-268,-266,-176,-176,-139,-68,-51,-40,-15,15,62,116,167,214,238,255,300,324,285,244,234,210,163,126,92,64,60,38,-17,-19,15,8,-51,-171,-182,-8,133,146,23,-53,103,88,30,322,298,-79,-154,-32,19,0,-12,-85,-292,-330,-225,-302,-373,-259,-240,-371,-277,137,590,863,702,77,-345,-257,-214,-309,-249,-191,-238,-225,-152,-118,-90,-70,-70,-32,25,42,47,70,81,88,111,122,128,133,94,42,30,-8,-94,-128,-122,-137,-120,-75,-47,-12,10,-2,6,55,100,105,81,30,-51,-100,-94,-100,-150,-212,-253,-262,-240,-201,-204,-255,-311,-335,-337,-356,-373,-360,-356,-266,55,474,747,704,165,-431,-386,-171,-290,-322,-216,-232,-249,-195,-186,-186,-118,-92,-96,-36,21,81,105,21,27,105,55,180,401,227,12,53,94,70,-36,-111,83,171,-53,-79,96,81,-8,133,326,242,109,169,227,150,103,156,109,42,111,96,-30,-51,-15,-23,-30,-73,-197,-262,-242,-264,-300,-275,-118,221,597,775,515,-152,-502,-298,-236,-363,-294,-225,-296,-320,-262,-216,-171,-128.0,-103.0,-73.0,-27.0,12.0,66.0,126.0,158.0,163.0,180.0,184.0,135.0,81.0,55.0,17.0,-34.0,-66.0,-70.0,-77.0,-79.0,1
-290,-292,-367,-350,40,794,1093,264,-568,-482,-425,-749,-843,-563,-335,-478,-544,-469,-519,-378,-98,-160,-375,-237,55,72,-59,70,493,583,130,145,561,213,-187,89,126,-44,83,162,-79,-354,-123,241,2,-89,215,-288,-698,-27,243,-46,79,258,130,68,132,96,10,-8,-17,-68,-143,-185,-181,-168,-34,435,1063,1036,17,-672,-375,-275,-534,-452,-301,-324,-305,-294,-348,-314,-230,-192,-155,-121,-102,-40,49,111,181,243,237,211,228,215,138,55,-17,-70,-74,-66,-117,-145,-93,-100,-115,36,89,-91,-70,108,21,14,260,194,-158,-140,286,232,-200,-23,279,115,-123,-42,128,-228,-369,205,728,1307,1405,32,-1078,-472,173,-190,-557,-264,-46,-361,-480,-85,143,-269,-437,81,346,140,126,307,288,273,420,427,256,173,205,145,36,-19,-85,-145,-155,-162,-164,-155,-164,-173,-151,-126,-119,-128,-130,-98,-34,-6,4,61,81,34,4,8,14,36,74,66,4,-34,-66,-66,311,1053,1211,254,-555,-309,-40,-196,-258,-196,-104,-215,-610,-583,-162,-136,-66,226,-14,-224,93,258,303,514,484,309,328,299,230,307,303,173,130,91,-32,-72,-19,-29,-87,-140,-202,-196,-149,-147,-128,-89,-85,-74,-46,-27,-19,-21,-61,-108,-74,-27,-53,-59,-2,10,-55,-21,388,1074,1253,286,-758,-598,-202,-388,-465,-343,-350,-341,-262,-230,-211,-164,-138,-119,-70,-4,70,140,211,254,234,237,273,294,358,277,23,59,211,-40,-164,185,252,-128,-277,-57,207,267,-44,-457,-207,337,177,-290,-412,-179,136,160,-183,-271,76,121,-205,-373,-202,70,296,301,399,969,1048,239,-508,-557,-296,-452,-527,-173,-68,-371,-525,-290,-132,-198,-175,-70,-36,-4,74,151,200,241,273,288,309,320,299,260,202,145,108,83,74,85,81,66,81,102,102,91,66,46,76,126,185,247,245,215,237,234,160,130,160,100,-6,-10,27,8,-23,55,444,1127,1260,226,-660,-429,-220,-446,-412,-262,-311,-373,-378,-378,-348,-292,-243,-190,-145,-126,-79,0,68,123,158,164,175,192,187,155,98,32,-14,-29,-17,0,14,19,29,55,87,128,164,164,138,160,232,271,277,301,292,226,179,175,183,187,175,158,166,187,175,258,717,1380,1373,294,-572,-309,-57,-354,-427,-277,-303,-333,-260,-243,-305,-343,-324,-290,-243,-196,-185,-164,-108,-70,-38,2,14,8,4,-17,-68,-113,-134,-151,-151,-136,-121,-102,-70,-29,6,19,23,55,106,143,168,183,200,224,237,200,126,85,87,93,115,121,102,100,102,196,628,1318,1461,504,-397,-183,128,-85,-149,-36,-70,-93,-23,38,93,164,202,217,190,14,-132,-66,-29,-12,51,14,66,128,-91,-192,-17,-192,-446,-136,-40,-563,-677,-279,-249,-301,-34,-74,-299,-119,44,-14,-40,-153,-175,10,151,46,-130,-40,-72,-239,-83,-14,-138,-59,10,34,405,1106,1435,670,-397,-399,6,-128,-232,-100,-115,-168,-106,-74,-91,-70,-46,-53,-57,-49,-23,17,6,-23,6,38,25,36,36,-85,-241,-294,-307,-335,-361,-416,-495,-512,-461,-420,-393,-361,-335,-320,-296,-239,-155,-85,-42,-21,-25,-40,-72,-155,-198,-83,-34,-245,-309,-68,-12,-96,196,927,1625,1441,425.0,-55.0,93.0,-55.0,-267.0,-314.0,-311.0,-100.0,89.0,10.0,-93.0,-76.0,-6.0,29.0,104.0,200.0,34.0,-53.0,279.0,457.0,0
-130,-261,-128,-50,-152,-211,-167,-198,-274,-163,-91,-237,-296,-362,-410,-244,-250,-342,-222,-324,-608,-667,-584,-440,-377,-348,-239,-329,-458,-274,-152,-261,-237,-167,-248,-292,-237,-82,37,-61,-76,266,905,1465,1134,-10,-486,-65,43,-163,-128,-71,-111,-82,-28,-8,43,102,102,109,161,207,266,327,344,368,418,464,503,527,521,488,436,368,296,257,231,150,82,93,100,71,67,50,10,21,63,67,21,-67,-150,-196,-207,-198,-222,-307,-394,-396,-362,-366,-381,-357,-285,-242,-287,-300,-257,-272,-248,-222,-266,-181,-37,-124,-252,-322,-379,-170,21,331,1430,1770,183,-872,-390,-266,-495,-106,198,-91,-157,154,52,-119,106,128,135,318,292,246,76,85,536,641,379,377,573,527,303,372,379,178,460,407,-327,-274,388,405,4,-47,58,-4,-37,34,41,-54,-124,-128,-117,-113,-98,-95,-115,-117,-111,-122,-137,-154,-202,-252,-270,-300,-333,-324,-353,-416,-418,-388,-379,-353,-335,-344,-318,-272,-250,-200,80,752,1339,896,-231,-562,-174,-152,-303,-183,-87,-104,-50,2,-17,-28,-15,21,85,115,124,167,244,322,392,410,401,449,499,477,449,418,242,-4,-19,39,-87,-139,-45,-85,-252,-379,-331,-128,-56,-176,-178,-102,-135,-67,-61,-298,-366,-287,-399,-492,-386,-244,-196,-244,-274,-174,-98,-183,-191,-106,-198,-368,-357,-196,-174,-351,-405,-309,-292,-303,-167,246,916,1155,266,-713,-571,-207,-372,-414,-207,-165,-198,-146,-102,-80,-34,19,63,89,115,157,185,218,290,346,353,353,364,377,392,386,298,128,-10,-85,-128,-146,-167,-226,-281,-259,-196,-165,-163,-211,-272,-255,-207,-187,-174,-163,-163,-159,-124,-78,-74,-113,-139,-106,-45,-17,-6,13,6,-37,-76,-111,-165,-202,-231,-270,-270,-255,-268,-244,6,647,1254,929,-102,-501,-246,-270,-403,-283,-213,-250,-202,-143,-139,-106,-56,-34,-6,43,78,111,154,178,183,215,239,231,222,172,117,87,-17,-178,-268,-283,-298,-303,-296,-357,-427,-407,-351,-320,-290,-276,-285,-272,-235,-200,-163,-126,-111,-124,-115,-95,-113,-117,-100,-106,-119,-102,-47,-17,-10,8,0,-37,-45,-26,-43,-91,-111,-128,-146,-135,-161,-135,248,1031,1472,715,-431,-532,-139,-220,-327,-222,-242,-285,-246,-257,-244,-124,-52,-161,-215,-65,-172,-370,69,486,161,6,316,268,-15,109,255,-43,-285,-314,-473,-636,-481,15,74,-534,-623,-215,-189,-89,10,-388,-536,-174,104,30,-165,-115,-2,6,-76,-146,135,244,-170,-87,486,412,-32,-8,80,-146,-52,353,113,-163,401,543,-58,-161,26,-82,-19,525,1173,1134,74,-737,-453,-178,-351,-322,-174,-189,-211,-176,-161,-133,-69,-26,-19,-10,21,76,139,196,198,152,143,181,189,157,104,-4,-135,-209,-239,-252,-270,-307,-324,-298,-259,-224,-181,-161,-157,-130,-93,-69,-32,15,21,15,52,141,207,82,-26,141,246,163,170,202,133,87,89,41,10,50,65,23,-26,-78,-146,-205,-191,21,621,1336,1142,-135,-820,-351,-137,-370,-318,-196,-263,-244,-61,-6,-119,-85,80,-78,-486,-401,161,209,-141,10,283,37,-261,-157,61,91,-69,-122,-67,-237,-303,-161,-333,-514,-133,150,-200,-379,-163,-26,154,78,-65,189,43,-261,-10,292,122.0,-261.0,137.0,647.0,159.0,-78.0,298.0,300.0,157.0,148.0,47.0,6.0,45.0,-10.0,-45.0,4.0,2.0,-28.0,-32.0,-54.0,1
370,-231,47,96,-83,32,145,130,169,137,81,201,304,300,328,345,360,400,418,454,478,403,298,246,205,160,130,-2,-220,-272,-192,-182,-203,-268,-403,-396,-280,-272,-293,-268,-265,-240,-175,-186,-362,-574,-486,-246,-310,-428,-377,-598,-632,-45,64,-428,-467,94,932,1293,276,-692,-287,-304,-992,-703,66,173,-409,-628,-201,-210,-210,190,-51,-257,306,407,-17,60,381,334,195,270,313,223,154,111,45,40,68,19,-2,98,154,111,117,188,199,154,171,257,334,287,180,186,192,117,117,115,23,-15,10,-19,-98,-126,-117,92,756,1295,669,-486,-587,-137,-218,-317,-150,-115,-147,-109,-49,-8,-130,-227,-98,-261,-250,621,937,272,98,343,96,-184,4,113,135,308,162,-263,-510,-398,-141,-105,-238,-418,-366,-34,-111,-383,-328,-250,216,396,-403,-469,480,692,-197,-454,109,128,-40,-75,-300,-418,-283,15,576,1025,461,-679,-887,-385,-345,-495,-379,-313,-362,-313,-210,-208,-238,-212,-197,-160,-109,-85,-27,21,27,77,87,19,17,25,-60,-137,-147,-197,-244,-233,-255,-310,-358,-308,-227,-270,-355,-270,-72,-57,-154,-77,-72,-291,-242,23,-36,-280,-229,109,15,-482,-403,-25,-17,90,671,1436,1595,791,-4,-190,-115,-175,-368,-527,-293,182,-98,-506,-165,214,-92,-621,-699,-263,195,-34,-169,126,-6,-197,-34,-8,-197,-313,-390,-463,-467,-478,-476,-426,-424,-413,-321,-268,-306,-328,-308,-289,-240,-169,-139,-143,-132,-117,-139,-141,-77,-2,12,-17,-10,36,30,261,1065,1595,720,-420,-120,486,117,-439,-291,407,289,-454,90,804,-17,-461,8,0,366,801,72,-559,-231,491,722,321,456,656,-135,-651,-508,-420,-235,-242,-332,-443,-761,-671,-413,-480,-516,-426,-383,-343,-276,-261,-310,-323,-268,-261,-289,-212,-107,-130,-186,-147,-85,-120,-57,510,1151,786,-285,-551,-8,102,-92,21,160,135,182,246,210,240,347,362,319,332,358,336,298,218,152,253,390,242,135,340,201,-216,-6,195,-604,-840,195,85,-986,-456,295,-499,-990,-641,-263,328,184,-619,-334,201,-381,-836,-456,-317,-495,-411,-313,-358,-325,-122,388,1078,1025,-6,-518,-109,12,-160,-75,19,-6,6,51,113,156,165,199,231,255,287,315,362,383,362,366,368,300,220,169,66,-81,-165,-253,-360,-253,-285,-769,-688,-34,-317,-508,454,293,-862,-478,396,47,-684,-596,392,750,-107,-422,111,-32,-598,-731,-716,-75,1076,1488,1095,197,-557,-456,-231,-325,-323,-231,-195,-165,-113,-6,107,115,128,233,293,283,315,347,334,368,368,319,310,253,186,158,42,-70,-132,-220,-270,-265,-276,-265,-231,-227,-240,-235,-192,-120,-68,6,36,-246,-366,-66,-126,-289,-165,-177,94,122,-606,-392,613,1009,1224,962,214,49,-162,-398,45,-87,-518,87,461,-42,-173,45,-23,-68,92,113,-4,55,169,120,115,225,259,218,180,156,165,122,-12,-115,-137,-192,-227,-190,-214,-289,-334,-351,-349,-293,-199,-160,-152,-105,-70,-87,-102,-60,-68,-120,-81,-4,-2,-53,10,437,1198,1458,499,-456,-235,79,-160,-214,17,132,83,-34,-205,-214,42,102,47,370,596,291,96,328,362,225,325,165,-220,-190,-188,-347,-57,175,-96,-321,-291,-173,-167,-308.0,-364.0,-315.0,-310.0,-321.0,-304.0,-246.0,-165.0,-180.0,-246.0,-253.0,-248.0,-238.0,-199.0,-184.0,-167.0,-105.0,-85.0,-137.0,-137.0,0
-179,-168,-140,-175,-205,-168,-121,-87,-59,-55,-55,-25,17,46,59,98,373,1025,1608,1333,403,-10,162,121,-57,-46,-12,-34,-23,6,25,32,21,19,34,49,70,85,87,98,119,138,166,209,247,264,277,286,281,271,241,173,81,-23,-130,-209,-269,-311,-326,-356,-444,-506,-493,-512,-549,-546,-591,-666,-649,-604,-589,-555,-534,-546,-534,-497,-469,-429,-388,-371,-358,-331,-296,-258,-217,-196,-185,-166,-143,-155,-200,-215,-202,-196,-183,-175,-183,-177,-164,-162,-143,-102,-68,-42,-32,-19,38,104,132,158,179,145,108,130,168,194,209,207,198,217,247,269,273,294,553,1189,1741,1382,346,-128,-4,-98,-239,-153,-117,-185,-245,-279,-264,-222,-198,-181,-173,-183,-190,-177,-177,-192,-187,-168,-138,-93,-55,-40,-34,-53,-100,-123,-143,-232,-352,-429,-461,-474,-474,-472,-452,-425,-408,-375,-333,-299,-262,-224,-200,-183,-151,-117,-91,-66,-46,-29,-6,8,14,38,59,59,61,76,85,79,53,32,29,38,46,76,113,126,119,117,128,147,173,173,106,38,34,70,121,164,106,-4,-17,4,-32,-74,-130,-209,-249,-275,-335,-373,-399,-431,-429,-380,-149,452,1104,856,-322,-854,-390,-271,-523,-476,-395,-440,-403,-328,-316,-314,-294,-262,-220,-175,-136,-111,-89,-53,4,59,106,123,98,89,130,166,181,179,145,74,8,-34,-68,-104,-123,-126,-117,-91,-59,-44,-36,-61,-132,-160,-121,-104,-98,-104,-168,-220,-196,-173,-170,-196,-277,-328,-299,-271,-260,-220,-192,-185,-162,-132,-111,-72,-38,-23,-10,12,34,61,87,79,34,14,55,111,132,119,96,66,38,36,59,61,27,4,6,-6,-27,-49,-106,-173,-59,433,1140,1298,422,-433,-320,-89,-258,-273,-158,-198,-217,-140,-102,-85,-64,-121,-205,-187,-128,-100,-64,-42,-68,-104,-104,-59,-10,-17,-81,-121,-89,-57,-70,-121,-200,-267,-288,-290,-290,-290,-286,-273,-239,-196,-160,-134,-111,-89,-64,-23,14,36,53,64,55,53,76,91,100,115,121,132,155,168,177,194,200,207,224,232,239,258,256,215,185,177,170,168,166,153,140,134,138,187,243,241,196,149,61,-59,-138,-224,-339,-380,-363,-361,-363,-403,-499,-553,-497,-226,388,982,736,-226,-653,-399,-371,-497,-431,-393,-412,-356,-286,-254,-220,-196,-205,-190,-134,-87,-59,-40,-14,36,102,160,211,237,245,275,314,337,341,303,222,151,113,85,64,40,14,12,38,68,91,102,100,85,64,59,72,38,-46,-87,-64,-40,-29,-17,-6,-2,8,32,55,59,55,4,-79,-100,-74,-72,-70,-76,-117,-132,-111,-134,-173,-170,-173,-196,-200,-170,-147,-153,-196,-269,-316,-314,-296,-273,-264,-294,-326,-350,-375,-382,-378,-384,-228,301,944,880,-87,-709,-437,-279,-444,-393,-279,-303,-307,-279,-299,-296,-243,-196,-181,-209,-237,-198,-130,-87,-57,-25,23,89,149,196,230,234,237,245,232,181,96,-55,-209,-256,-241,-234,-239,-303,-401,-425,-412,-401,-369,-367,-397,-375,-324,-288,-258,-234,-226,-200,-162,-126,-91,-66,-64,-61,-34,6,32,44,59,70,85,111,130,140,151,151,158,198,226,202,179,185,168,134,100,25,-51,-61,-68,-81,-68,-59,-59,-49,-49,74,566,1262,1318,262,-619.0,-318.0,21.0,-211.0,-279.0,-155.0,-192.0,-241.0,-200.0,-215.0,-269.0,-262.0,-249.0,-318.0,-384.0,-358.0,-309.0,-275.0,-234.0,-245.0,2
-151,-217,-217,-194,-187,-166,-153,-158,-147,-128,-111,-87,-98,-151,-187,-181,-170,-162,-145,-145,-155,-155,-140,-108,-55,-2,12,-23,-66,-96,-140,-202,-232,-243,-262,-303,-356,-386,-393,-403,-405,-371,-151,433,1080,841,-363,-907,-375,-175,-403,-346,-230,-262,-228,-149,-138,-149,-117,-61,-25,8,46,12,-68,-61,12,64,98,98,40,17,57,87,102,108,79,-6,-100,-147,-177,-234,-275,-273,-249,-220,-187,-166,-158,-145,-111,-68,-42,-23,0,17,32,55,74,87,106,113,66,17,34,57,51,51,51,27,4,0,4,10,23,55,121,164,145,106,68,32,10,0,-2,14,21,6,6,19,23,27,36,140,555,1206,1380,418,-630,-457,-51,-305,-444,-281,-279,-375,-427,-455,-431,-382,-350,-339,-397,-459,-420,-350,-309,-254,-205,-187,-149,-74,-14,27,57,51,25,-29,-149,-269,-343,-408,-463,-497,-504,-474,-450,-476,-489,-448,-408,-386,-358,-339,-346,-326,-275,-241,-228,-220,-211,-205,-194,-183,-194,-243,-294,-309,-296,-275,-271,-284,-284,-239,-196,-217,-249,-252,-271,-303,-292,-247,-220,-215,-202,-179,-162,-130,-96,-98,-51,237,805,1275,871,-256,-606,-132,-162,-455,-348,-241,-292,-267,-262,-326,-322,-299,-305,-262,-200,-179,-147,-89,-34,25,96,155,196,232,271,311,348,348,299,222,143,91,68,46,23,6,14,46,87,119,119,108,119,117,96,113,128,102,98,138,168,187,207,200,190,213,241,258,264,200,89,64,115,164,192,138,29,-19,-14,-25,-17,0,-19,-44,-76,-153,-205,-200,-209,-226,-104,341,1051,1407,704,-305,-320,51,-79,-187,-59,-55,-91,-19,34,34,66,96,104,136,179,200,224,262,294,307,303,279,260,264,267,256,256,228,153,66,-10,-76,-121,-147,-166,-194,-232,-267,-303,-326,-324,-316,-316,-316,-314,-318,-318,-288,-279,-350,-435,-442,-422,-457,-534,-638,-726,-728,-683,-647,-604,-578,-589,-574,-489,-405,-369,-335,-316,-341,-346,-305,-256,-217,-207,-205,-181,-143,-102,-64,-49,-53,123,692,1401,1439,450,-356,-158,53,-126,-102,32,-2,-21,46,83,100,145,173,173,194,237,277,314,350,373,397,442,493,531,557,561,557,546,516,448,331,170,-8,-185,-303,-350,-378,-408,-469,-538,-531,-497,-493,-472,-446,-452,-440,-401,-382,-371,-365,-382,-401,-418,-437,-433,-418,-429,-440,-427,-414,-414,-429,-457,-465,-444,-429,-410,-373,-346,-337,-320,-264,-198,-162,-138,-117,-128,-151,-140,-104,-72,-53,-49,-49,-32,0,32,46,34,134,604,1356,1721,1055,25,-179,49,-55,-181,-143,-160,-198,-166,-119,-85,-42,-25,-89,-155,-128,-72,-38,-4,-23,-87,-72,2,51,87,113,108,111,123,102,44,-51,-164,-224,-224,-211,-200,-190,-187,-192,-196,-192,-177,-166,-166,-162,-145,-117,-98,-87,-76,-70,-59,-34,-14,-27,-59,-91,-132,-164,-168,-175,-190,-213,-241,-241,-226,-228,-222,-202,-222,-279,-294,-275,-267,-252,-239,-234,-194,-132,-102,-91,-79,-87,-115,-126,-113,-81,-74,-138,-222,-230,-196,-177,-158,-168,-138,200,916,1463,1100,126,-350,-256,-277,-365,-286,-230,-264,-267,-220,-175,-132,-83,-55,-51,-27,25,79,130,175,198,224,279,337,384,422,425,388,365,346,275,162,55,-25,-98,-183.0,-239.0,-241.0,-249.0,-269.0,-252.0,-215.0,-187.0,-162.0,-149.0,-164.0,-192.0,-202.0,-209.0,-239.0,-264.0,-275.0,-284.0,-277.0,-260.0,2
-223,-244,-283,-269,-193,-176,-202,-197,-169,-139,-121,-144,-165,-155,-139,-128,-188,-304,-332,-332,-346,-137,316,474,44,-300,-155,-58,-153,-132,-81,-137,-141,-72,-97,-172,-151,-90,-69,-53,-44,-37,-11,6,25,51,67,102,139,141,146,148,132,148,167,139,109,86,51,65,97,67,27,6,4,37,48,34,41,44,27,20,18,20,27,27,34,55,58,44,53,60,51,51,53,37,-4,-93,-118,-46,-20,-44,-53,-74,-95,-128,-162,-144,-123,-123,-139,-179,-176,-132,-137,-155,-121,-86,-81,-76,-76,-67,-37,-11,-30,-104,-179,-65,337,667,414,-69,-93,65,18,0,51,-11,-62,-2,44,46,62,62,53,74,107,116,116,100,88,123,160,172,172,158,151,176,202,209,202,162,128,128,123,104,53,-79,-169,-130,-90,-74,-55,-65,-60,-48,-97,-128,-95,-79,-79,-72,-65,-41,-44,-74,-53,-6,9,11,-9,-48,-30,20,32,34,27,11,30,65,58,11,-51,-76,-67,-76,-83,-51,-32,-39,-25,-4,4,0,-25,-37,-11,13,20,20,4,-4,11,11,-46,-93,62,465,656,286,-69,18,72,-62,-60,30,32,11,25,32,41,20,-58,-141,-169,-125,-67,-39,-18,-11,-4,20,51,81,97,104,111,121,130,146,134,90,58,46,30,-4,-37,-27,-2,2,20,51,51,44,55,65,76,88,72,60,69,41,16,37,37,23,37,48,53,65,60,60,74,74,79,88,65,25,13,30,48,53,27,2,-4,-34,-65,-90,-130,-107,-46,-48,-60,-44,-51,-55,-41,-39,-53,-132,-216,-165,-102,-121,-130,-169,-223,-72,323,532,190,-211,-146,-2,-69,-81,-20,-27,-25,20,34,23,32,44,60,88,100,95,97,102,125,153,160,155,155,165,188,211,211,200,193,158,107,95,88,48,23,41,65,81,88,76,67,46,-2,-6,18,-23,-67,-25,11,16,20,13,0,18,48,58,48,-37,-137,-102,-37,-74,-114,-100,-86,-65,-53,-67,-86,-121,-139,-102,-69,-67,-74,-100,-104,-60,-20,6,4,-32,-32,4,2,-2,2,-18,-16,23,41,48,46,-6,-81,-116,-27,295,626,451,-11,-62,109,69,6,39,53,6,-37,-16,2,-9,13,58,76,83,72,62,93,128,139,141,132,128,148,141,114,123,123,102,111,116,86,-18,-162,-183,-104,-79,-79,-67,-100,-125,-90,-53,-48,-58,-62,-55,-32,-11,-2,-9,-20,-16,2,23,30,9,-27,-23,11,9,-30,-55,-74,-100,-90,-60,-69,-83,-76,-72,-93,-148,-181,-137,-86,-88,-83,-53,-62,-93,-83,-60,-48,-32,-32,-34,-32,-67,-116,-155,-202,-76,323,546,190,-193,-104,27,-25,-25,27,-16,-118,-118,-58,-48,-25,6,-2,37,146,214,193,181,214,228,218,221,232,225,200,211,235,223,204,176,137,114,95,67,58,53,53,74,69,20,-46,-104,-93,-37,-34,-48,-37,-30,-25,2,16,9,0,-2,-4,-18,-53,-65,-60,-60,-74,-81,-83,-125,-153,-125,-109,-118,-125,-118,-109,-95,-65,-51,-69,-114,-202,-239,-162,-118,-141,-137,-125,-146,-193,-200,4,393,458,2,-272,-102,-30,-121,-93,-25,-23,-9,30,23,-6,23,67,53,32,48,37,6,53,97,72.0,58.0,90.0,130.0,160.0,179.0,179.0,162.0,153.0,130.0,69.0,27.0,-6.0,-93.0,-172.0,-188.0,-153.0,-107.0,-97.0,-111.0,2
-257,-296,-309,-300,-287,-279,-274,-263,-237,-202,-172,-154,-159,-183,-198,-181,-150,-124,-117,-165,-209,-183,-143,-137,-128,-122,-115,-87,-52,-26,-13,-17,-15,13,47,71,74,21,-47,-47,-10,2,8,-30,-119,-165,-163,-143,-95,-74,-87,-80,-58,-56,-50,-32,-30,-21,10,45,69,80,87,109,266,708,1284,1326,353,-514,-202,239,89,34,154,115,74,109,85,47,69,93,85,74,37,-34,-71,-63,-54,-34,8,45,69,93,109,102,82,32,-39,-115,-189,-257,-300,-318,-314,-294,-276,-270,-266,-276,-298,-283,-255,-296,-362,-359,-320,-294,-268,-279,-351,-381,-342,-309,-287,-257,-248,-250,-237,-213,-170,-124,-113,-115,-98,-63,-28,4,21,23,28,34,23,23,43,43,32,63,115,104,23,-115,-283,-292,-34,196,159,87,124,139,100,-39,-143,-6,222,593,1186,1306,370,-540,-318,124,124,167,222,146,133,170,165,174,198,178,130,58,-15,-26,-2,0,10,-4,-52,-45,-2,15,34,56,30,-26,-93,-194,-281,-292,-311,-355,-355,-364,-396,-383,-353,-346,-329,-298,-263,-222,-196,-185,-198,-244,-255,-213,-187,-183,-163,-143,-124,-93,-61,-47,-43,-30,-8,17,47,69,71,74,91,100,85,74,74,69,78,109,130,146,150,154,194,237,252,274,279,235,209,224,242,255,259,198,109,98,126,133,252,610,1112,1295,545,-519,-547,-76,-170,-324,-181,-130,-165,-128,-104,-109,-78,-56,-100,-167,-189,-194,-202,-185,-143,-119,-95,-61,-23,8,34,45,37,2,-61,-126,-187,-263,-342,-383,-390,-379,-366,-353,-327,-296,-276,-255,-222,-196,-172,-141,-126,-126,-111,-71,-39,-21,-4,4,10,26,52,78,74,13,-56,-63,-43,-50,-82,-150,-215,-222,-196,-176,-150,-139,-165,-181,-152,-122,-152,-316,-479,-436,-344,-338,-285,-229,-255,-281,-248,-200,-167,-133,-111,-111,-98,-58,-21,111,508,1079,1288,512,-545,-512,15,-23,-128,28,78,61,124,154,137,159,205,231,259,283,290,305,351,396,431,447,451,488,536,564,580,558,447,246,89,39,4,-50,-104,-196,-270,-261,-226,-220,-211,-198,-191,-187,-215,-257,-248,-213,-202,-178,-139,-117,-91,-50,-19,10,52,85,115,146,159,157,148,146,159,174,172,165,163,152,163,211,239,200,117,102,191,198,139,233,368,351,316,324,285,231,229,224,185,161,113,-6,-98,-109,-93,106,669,1240,1055,-30,-737,-346,-28,-196,-196,-150,-252,-244,-167,-187,-263,-359,-427,-410,-366,-340,-314,-305,-307,-263,-165,47,285,290,161,133,135,89,26,-69,-218,-383,-538,-687,-767,-750,-732,-728,-687,-632,-601,-580,-556,-529,-495,-453,-418,-396,-375,-355,-335,-305,-274,-257,-235,-211,-215,-224,-205,-185,-172,-150,-135,-122,-98,-78,-65,-43,-28,-19,-2,10,13,30,63,98,85,23,13,28,-30,-128,-176,-167,-154,-141,-113,-89,-102,-122,-98,67,516,1116,1175,176,-837,-649,-128,-196,-290,-157,-124,-133,-56,-4,-4,2,32,69,109,152,183,183,176,196,242,285,322,344,327,303,305,300,233,100,-43,-161,-246,-298,-338,-381,-410,-403,-379,-364,-348,-344,-344,-329,-296,-274,-300,-359,-383,-364,-344,-320,-294,-292,-335,-412,-460,-455,-438,-431,-444,-501,-532,-486,-444.0,-431.0,-401.0,-375.0,-368.0,-342.0,-307.0,-290.0,-250.0,-176.0,-128.0,-106.0,-65.0,-50.0,-69.0,-69.0,-50.0,-32.0,-10.0,6.0,2
-202,-173,-187,-177,-190,-187,-74,4,-12,23,55,14,-17,-74,-126,-106,-121,-155,-136,-149,-205,-220,-23,619,1335,1130,36,-489,-170,-262,-717,-668,-249,-158,-390,-132,296,-17,-732,-1006,-305,356,-175,-440,318,337,-271,-66,55,-369,-194,237,-303,-1004,-685,-209,-267,-551,-367,143,-316,-1352,-971,403,134,-877,-17,538,-416,-553,-17,108,-70,-23,108,-177,-224,6,-81,-166,-132,-138,145,830,1234,596,-435,-491,-42,-91,-196,-40,17,-34,-10,19,-4,55,138,51,-42,14,70,68,115,158,76,6,49,46,-17,-55,-132,-243,-305,-348,-410,-455,-482,-467,-414,-386,-373,-350,-343,-299,-194,-185,-324,-311,59,51,-615,-472,264,-254,-621,382,299,-788,-431,553,1147,1790,1610,271,-854,-262,636,-149,-805,38,792,-49,-971,83,743,-416,-606,395,576,117,-96,104,585,696,292,85,339,482,200,-12,21,0,-113,-209,-284,-303,-269,-284,-290,-271,-393,-480,-314,-183,-307,-363,-194,-126,-202,-200,-132,-115,-128,-111,-79,-29,-4,-17,-6,239,931,1623,1324,215,-202,128,115,-55,19,8,-96,-87,-49,-46,-38,6,59,74,70,123,196,241,301,346,341,343,335,307,254,136,8,-57,-89,-108,-119,-147,-175,-155,-126,-115,-104,-117,-155,-190,-211,-177,-74,-115,-341,-322,-68,-70,-281,-386,-363,-497,-690,-281,318,361,856,1647,726,-476,-38,179,-361,-275,-170,-290,386,546,-309,-271,168,-275,-145,687,91,-591,196,709,487,346,307,115,12,455,606,0,-245,-59,-173,-307,-192,-158,-256,-209,-64,-87,-207,-207,-96,-10,23,25,-21,-61,-57,-61,-61,-38,-51,-74,-32,12,12,53,346,1048,1529,833,-294,-354,76,-46,-239,-134,-49,-68,-40,-12,-53,-17,51,57,104,140,102,74,98,132,143,145,151,134,96,59,-14,-136,-213,-247,-322,-339,-215,-181,-346,-401,-209,-228,-455,-177,258,155,-6,59,-119,-314,61,281,-314,-452,341,429,-365,-405,32,-205,527,2354,1762,-352,-202,771,83,-593,-113,49,-228,-61,237,198,-145,-241,0,-104,-437,-322,126,119,-87,296,59,-766,-292,561,378,-410,-1046,-843,-202,-230,-551,-538,-561,-662,-634,-604,-591,-521,-476,-457,-399,-333,-264,-205,-198,-226,-234,-179,-111,-87,-91,-119,-151,-138,-51,335,1068,1298,427,-365,-166,79,-61,-40,79,89,111,164,200,187,175,205,228,260,318,354,375,384,384,418,437,410,380,296,136,-34,-79,-68,-111,-153,-425,-749,-583,-378,-574,-435,-83,-427,-719,-318,-566,-1016,-10,542,-606,-948,121,369,-542,-719,119,245,-429,-525,226,1213,1446,442,-529,-294,89,-205,-322,-104,-108,-153,-34,-4,-79,-72,-40,-21,32,74,100,136,190,215,181,187,232,196,119,89,51,-32,-143,-243,-296,-322,-335,-339,-350,-399,-474,-476,-435,-408,-388,-410,-465,-469,-414,-440,-521,-566,-619,-649,-604,-544,-542,-602,-576,-179,610,1072,335,-854,-944,-514,-585,-551,-399,-649,-675,-177,-17,-343,-380,-40,85,-149,-166,217,247,-168,-123,273,149,-237,-83,303,-158,-839,42,920,-363,-1014,42,-151,-429,418,-40,-561,213,-202,-1136,-303,722,143,-651,-134,256,-587,-863,-70,222,-281,-531,106,373,-393,-557,384,1311,1095,-269,-969,-482,-305,-527,-418,-258,-279,-324,-307,-222.0,-192.0,-247.0,-230.0,-166.0,-143.0,-68.0,6.0,32.0,68.0,104.0,138.0,185.0,232.0,202.0,123.0,53.0,-36.0,-81.0,-115.0,0
-156,-109,-107,-25,21,-25,-10,73,100,122,191,225,223,242,272,296,305,294,266,229,195,158,139,135,113,66,12,-17,0,-77,-328,-343,2,4,-324,-279,-199,-337,-225,-287,-610,-391,-195,-874,-1104,77,558,-560,-1164,-575,42,-88,-560,-341,141,19,-397,-620,-378,38,247,650,971,889,511,-305,-360,165,-111,-186,68,-126,-131,85,70,47,81,53,64,128,158,186,234,277,311,311,309,324,307,266,242,216,178,163,156,146,158,163,124,70,0,-36,-21,-21,-23,-32,-103,-178,-208,-249,-292,-296,-326,-373,-378,-378,-378,-348,-305,-279,-272,-275,-262,-234,-221,-229,-225,-234,-281,-292,-238,-38,401,887,1121,857,96,-382,-201,-126,-307,-287,-191,-186,-165,-124,-100,-55,-6,-4,-40,-45,-96,-146,189,539,193,-17,494,552,-85,-122,294,49,98,762,259,-562,17,513,96,-251,-457,-324,68,-131,-526,-208,169,-36,-229,-324,-433,-311,-208,-296,-388,-343,-206,-165,-227,-221,-178,-210,-277,-292,-264,-236,-221,-216,-174,85,599,1074,1162,627,-174,-393,-174,-193,-270,-182,-131,-131,-81,-32,-8,15,51,100,150,178,208,244,283,315,324,317,313,300,275,240,204,182,167,143,120,109,113,126,120,85,60,68,77,36,-42,-96,-92,-70,-58,-103,-283,-442,-427,-509,-687,-526,-219,-83,-8,-116,-365,-464,-519,-554,-305,-100,-479,-719,-126,324,309,597,814,302,-406,-543,-251,75,195,-51,-223,-73,19,-45,-8,105,122,113,156,191,232,296,337,348,354,352,339,328,285,189,111,77,64,58,60,73,79,94,131,152,139,120,100,42,-38,-47,-15,-23,-42,-42,-55,-79,-113,-178,-240,-292,-365,-401,-386,-406,-455,-474,-472,-461,-449,-438,-416,-345,-146,214,590,754,444,-204,-444,-219,-204,-317,-234,-161,-154,-98,-68,-81,-32,40,92,126,124,148,229,298,279,247,296,302,171,45,68,171,174,85,38,30,27,90,178,154,70,77,154,148,94,111,146,152,137,113,77,-25,-141,-163,-152,-182,-223,-302,-414,-464,-451,-449,-470,-491,-498,-481,-453,-416,-352,-158,216,601,769,481,-148,-384,-184,-178,-268,-186,-120,-133,-100,-53,-49,-27,32,77,75,66,96,139,169,197,210,208,204,167,73,10,17,-17,-75,-60,-32,12,186,298,94,-88,83,322,300,141,109,141,-38,-242,-27,214,-131,-464,-8,401,-94,-427,-94,-77,-509,-631,-105,161,-272,-635,-936,-913,-453,-453,-161,1022,1448,769,167,-253,-453,-296,-259,-345,-296,-242,-242,-206,-165,-167,-150,-107,-73,-25,36,60,66,118,176,197,212,210,156,90,60,45,19,-10,-23,-4,6,4,12,17,2,-19,-32,-55,-122,-208,-253,-275,-279,-257,-249,-259,-259,-253,-214,-161,-156,-156,-128,-178,-277,-285,-244,-229,-208,-219,-298,-264,38,446,706,711,305,-247,-266,-83,-283,-375,-242,-348,-386,-111,81,60,-38,6,210,214,55,64,150,193,212,186,339,610,562,311,249,193,-58,-47,305,322,85,122,210,186,225,158,15,133,279,180,118,182,167,96,81,98,96,96,100,83,66,68,64,70,60,-34,-118,-128,-135,-137,-100,19,281,599,743,427,-210,-451,-266,-298,-427,-343,-275,-320,-333,-292,-262,-232,-184.0,-143.0,-131.0,-105.0,-36.0,34.0,73.0,90.0,96.0,103.0,105.0,103.0,83.0,47.0,8.0,-15.0,-27.0,-25.0,-6.0,15.0,1
-304,-211,-237,-186,-114,-121,-95,-41,-44,-41,23,79,90,86,69,74,74,53,16,-41,-30,48,72,74,104,109,79,23,-48,-83,-83,-107,-132,-111,-69,-46,-44,-58,-60,-25,20,48,55,62,100,141,148,125,109,102,100,125,153,160,139,32,-81,-55,-18,-83,-151,-176,-165,-134,-137,-169,-200,-228,-265,-346,-386,-100,509,700,134,-274,-130,-58,-162,-153,-90,-67,-27,46,86,39,-23,-13,20,23,9,16,48,79,116,153,141,102,104,148,183,162,76,-11,-39,-25,-4,32,81,141,179,176,167,151,79,-6,-39,-81,-95,9,90,58,51,76,34,-16,-4,13,11,41,90,34,-60,-44,6,-9,-11,-2,9,81,83,32,134,123,-111,-207,-174,23,600,968,463,-155,-102,46,-60,-76,-39,-74,-79,-74,-121,-169,-190,-188,-176,-155,-141,-134,-116,-93,-67,-41,-37,-27,-6,-9,-23,-34,-69,-111,-153,-202,-214,-204,-214,-207,-174,-176,-195,-190,-172,-141,-109,-90,-55,-23,-4,41,93,102,109,83,4,-2,46,51,83,111,88,239,421,249,65,134,172,125,-9,-153,-79,4,-51,-60,-60,-176,-237,34,667,1047,577,-6,62,165,-51,-128,-39,-62,-132,-146,-95,0,20,34,132,146,93,125,139,100,109,144,160,179,153,107,116,134,100,69,67,48,37,69,118,155,172,174,186,221,260,207,76,107,272,153,-111,-34,62,18,146,132,-179,-365,-318,-318,-356,-288,-237,-283,-316,-307,-304,-279,-235,-223,-232,-246,-269,-244,-195,-274,-460,-416,123,751,609,-51,-160,51,-37,-137,-95,-137,-232,-225,-134,-79,-95,-79,-34,-20,27,95,130,183,228,211,211,269,351,449,509,493,456,428,414,407,346,246,169,83,-11,0,67,55,44,88,114,44,-74,-100,-30,0,-44,-111,-200,-249,-216,-181,-153,-109,-69,-4,67,72,158,225,0,-125,32,67,-6,30,79,81,60,-27,-148,-69,442,998,695,-165,-351,-48,-104,-304,-304,-253,-237,-204,-190,-204,-209,-207,-218,-218,-197,-193,-195,-151,-102,-95,-76,-32,18,72,104,111,116,102,76,65,32,-20,-27,6,37,67,118,172,183,151,141,134,51,-30,23,130,214,276,304,344,381,335,283,286,276,246,228,211,190,158,114,69,16,-25,4,18,-37,-95,-123,-76,-146,-356,-256,302,828,563,-137,-251,-90,-214,-288,-200,-193,-223,-169,-123,-123,-86,-39,-48,-37,30,76,90,81,74,93,55,4,51,95,72,74,100,74,16,-18,-30,-27,-11,-2,-37,-139,-230,-197,-137,-162,-214,-235,-230,-251,-269,-249,-258,-318,-363,-400,-395,-302,-265,-304,-244,-144,-114,-60,23,53,58,65,58,39,4,-25,-18,0,0,-23,-25,2,-48,-155,-2,567,968,532,-104,-79,121,-27,-174,-100,-30,-65,-95,-128,-207,-283,-216,16,46,-183,-179,27,9,-118,27,211,58,-48,93,72,-16,37,-18,-151,-165,-79,41,-69,-374,-432,-293,-193,-134,-158,-183,-88,-6,-16,-48,-67,-20,32,16,18,65,69,27,27,81,121,130,137,162,221,274,302,309,295,283,309,344,321,225,167,162,146,100,-44,-267,-251,209,681,481,-102,-263,-169,-253,-314,-265,-265,-309,-318,-316,-316,-300,-272,-228,-141.0,-34.0,65.0,174.0,260.0,249.0,188.0,160.0,181.0,176.0,104.0,34.0,6.0,-34.0,-86.0,-107.0,-160.0,-200.0,-151.0,-162.0,1
23,56,91,87,71,200,636,1227,1310,377,-597,-416,100,54,-10,128,148,119,178,226,239,268,292,292,309,348,388,418,414,383,394,449,492,521,516,479,429,381,322,255,154,39,-41,-78,-111,-58,124,161,-4,-47,4,-28,-78,-133,-205,-211,-181,-174,-174,-185,-205,-194,-161,-141,-130,-133,-139,-135,-139,-154,-154,-154,-165,-163,-133,-102,-122,-307,-525,-386,-17,124,80,106,143,100,74,109,98,-100,-322,-229,-30,-133,-259,-67,41,115,861,1487,756,-379,-536,-257,-355,-348,-43,4,-176,-152,-34,-47,-43,13,43,71,82,34,13,63,113,161,205,191,161,178,211,226,237,215,143,52,-43,-148,-207,-106,98,115,-23,-157,-244,-85,126,52,-45,26,50,-109,-285,-235,-85,-65,-65,6,-23,-157,-279,-401,-438,-344,-211,-98,-85,-126,-215,-272,-202,-366,-628,-364,106,146,23,45,28,-8,54,102,-21,-266,-191,202,281,137,250,575,1046,1419,920,-305,-717,-126,67,-226,-298,-231,-252,-270,-213,-170,-154,-111,-63,-43,-15,91,215,244,244,294,359,412,447,475,503,510,484,440,353,239,170,98,-45,-130,-56,39,85,115,133,139,154,185,220,239,246,242,226,200,172,152,137,128,128,122,93,54,17,-8,-39,-93,-157,-187,-235,-381,-427,-272,-229,-342,-344,-296,-329,-372,-434,-519,-525,-475,-434,-335,-266,-377,-442,-159,423,883,451,-748,-1164,-556,-298,-425,-294,-130,-54,41,65,71,117,124,117,163,213,211,176,148,152,185,237,294,331,333,322,331,346,329,309,279,200,126,91,76,69,67,76,95,106,113,130,146,159,174,189,213,237,229,194,159,130,119,150,170,148,152,183,167,124,85,52,50,52,13,-26,-32,-32,-58,-126,-229,-309,-344,-383,-420,-427,-420,-414,-414,-392,-207,290,852,680,-477,-1254,-830,-407,-529,-523,-386,-442,-575,-606,-547,-499,-473,-429,-370,-311,-252,-207,-174,-119,-37,47,124,176,202,224,255,290,298,246,130,15,-39,-65,-85,-104,-143,-170,-139,-82,-32,30,137,272,340,320,307,226,85,126,242,198,163,209,200,143,80,26,28,45,21,-8,-10,34,54,-13,-58,-58,-98,-135,-111,-82,-109,-141,-146,-157,-165,-146,-113,39,497,1105,1079,2,-881,-610,-266,-451,-499,-333,-248,-189,-143,-150,-163,-157,-141,-113,-74,-41,-23,2,32,71,128,187,220,231,242,263,287,294,259,178,80,8,-28,-52,-74,-91,-104,-95,-67,-39,-13,2,-13,-21,6,39,23,-63,-167,-202,-178,-154,-137,-137,-191,-257,-246,-202,-183,-161,-124,-80,-50,-34,-21,-26,-65,-98,-98,-78,-52,-23,-2,6,2,4,50,239,702,1267,1208,200,-571,-287,52,-65,-82,28,32,32,71,82,65,50,45,43,32,30,34,39,61,95,126,152,187,213,200,174,163,148,109,19,-115,-237,-300,-314,-316,-368,-444,-462,-436,-418,-394,-394,-447,-473,-438,-403,-364,-314,-303,-307,-285,-244,-207,-183,-174,-176,-200,-213,-181,-113,-43,-21,-37,-30,-21,-39,-41,-30,-43,-43,-13,17,45,67,67,80,222,649,1251,1306,381,-429,-205,176,126,122,211,185,148,170,185,183,161,130,124,100,58,61,67,8,-37,-4,26,23,13,-58.0,-150.0,-163.0,-152.0,-194.0,-263.0,-346.0,-438.0,-497.0,-508.0,-501.0,-505.0,-514.0,-505.0,-486.0,-495.0,-510.0,-475.0,-423.0,-377.0,2
104,143,157,148,181,270,331,324,322,366,390,335,263,207,115,17,-41,-69,-71,-74,-89,-80,-43,-15,-17,-15,0,-10,-50,-76,-80,-78,-87,-85,-61,-45,-37,-54,-41,-2,-209,-335,117,412,106,-104,-165,-298,-185,76,294,621,1184,1179,-233,-1129,-231,187,-632,-758,-218,-91,237,346,-401,-429,329,233,-495,-359,521,536,78,209,218,119,283,353,444,405,231,246,102,-178,-117,6,-87,-117,-63,-91,-130,-95,-61,-65,-47,-21,-41,-56,-47,-80,-117,-67,4,-37,-139,-128,-45,-54,-139,-176,-183,-207,-191,-152,-185,-259,-283,-237,30,687,1227,654,-619,-874,-303,-255,-425,-300,-250,-298,-235,-152,-130,-124,-130,-122,-71,-8,54,119,167,196,213,237,276,309,314,279,224,161,100,56,19,-10,-19,2,26,15,-13,-17,-8,-2,19,52,76,74,52,30,26,43,41,2,-19,-17,-61,-130,-167,-181,-194,-191,-174,-148,-124,-130,-198,-174,239,992,1306,516,-508,-601,-331,-407,-440,-318,-296,-314,-285,-294,-305,-263,-218,-185,-143,-102,-82,-50,19,76,111,159,205,226,229,211,161,93,39,8,-10,-10,2,23,61,82,47,-10,8,63,52,41,63,82,115,141,100,21,-8,17,23,-15,-28,-26,-56,-91,-93,-80,-93,-113,-104,-80,-54,-43,-54,93,649,1395,1480,501,-399,-324,-69,-174,-287,-281,-290,-362,-377,-338,-331,-276,-178,-170,-185,-122,-6,143,194,58,30,196,292,305,331,318,246,133,26,30,65,32,2,15,87,117,28,4,82,100,74,74,98,71,-23,-32,13,-37,-100,-109,-85,-56,-63,-71,-41,-37,-80,-106,-102,-89,-67,-52,-45,-43,-50,-32,69,427,1099,1461,625,-641,-632,4,-78,-250,-95,-124,-222,-137,-74,-74,-43,-54,-91,-50,21,50,98,176,218,244,307,362,377,351,314,268,157,58,28,45,61,-26,-87,-4,10,-148,-237,-161,-102,-45,56,-2,-229,-316,-152,-113,-327,-222,128,13,-226,-124,-187,-372,-272,-187,-250,-274,-154,2,-117,-154,50,-104,-21,863,1219,146,-900,-553,-202,-460,-133,198,-106,-222,-71,-117,-126,-15,-45,-128,-104,-28,43,109,135,161,248,279,224,263,335,283,189,146,93,17,-41,-93,-152,-176,-170,-176,-176,-141,-119,-115,-91,-74,-87,-100,-109,-143,-187,-183,-146,-117,-89,-71,-91,-119,-150,-157,-126,-113,-126,-128,-104,-117,-220,-270,-45,562,1243,1164,95,-630,-340,-137,-294,-224,-95,-98,-61,-4,-6,19,100,152,130,41,26,174,263,222,222,272,242,161,194,252,126,-39,-119,-163,-67,13,-91,-222,-309,-231,-4,-13,-165,-135,-78,-106,-78,-89,-215,-143,32,-93,-239,-141,-122,-209,-109,-43,-196,-161,-23,-163,-300,-290,-377,-383,-218,-137,-209,-246,163,1011,1369,612,-296,-431,-266,-126,-39,-93,-41,69,32,-32,58,207,183,95,85,122,191,209,202,261,307,296,309,340,331,305,252,119,-26,-95,-128,-159,-172,-189,-207,-220,-218,-191,-163,-139,-117,-124,-150,-152,-141,-167,-231,-250,-235,-235,-215,-146,-130,-191,-222,-239,-294,-327,-324,-322,-307,-292,-270,-215,-191,-213,-172,122,802,1415,985,-259,-649,-106,13,-148,-8,78,17,67,154,194,237,263,263,268,292,353,414,442,436,396,390.0,429.0,423.0,375.0,340.0,198.0,10.0,10.0,-50.0,-285.0,-403.0,-436.0,-438.0,-261.0,45.0,137.0,-185.0,-425.0,-300.0,-229.0,1
135,141,109,60,21,10,38,53,38,51,85,240,653,1132,1323,962,197,-178,-8,8,-100,-19,10,-141,-275,-343,-388,-292,-133,-167,-232,-68,90,-81,-268,-103,-85,-320,-219,-193,-623,-711,-375,-485,-708,-360,-251,-614,-657,-427,-247,-305,-459,-275,-184,-363,-240,-131,-232,-242,-238,-201,-137,-180,-116,68,34,-60,-49,-79,-111,-111,-113,-98,-60,-23,-25,-70,-34,216,595,887,923,500,-100,-186,19,-42,-148,-139,-176,-223,-210,-182,-165,-150,-152,-163,-118,-38,6,21,4,-66,-122,-111,-98,-124,-184,-315,-433,-416,-386,-416,-408,-384,-397,-380,-333,-328,-339,-339,-324,-281,-251,-236,-186,-152,-163,-148,-107,-92,-70,-47,-79,-109,-83,-70,-75,-51,-27,-25,-6,12,0,36,283,726,1108,1179,683,-109,-294,0,-88,-309,-210,-96,-100,-206,-326,-186,-4,-120,-281,-165,4,-126,-182,148,247,-2,77,210,-90,-193,19,-53,-268,-320,-193,19,38,-8,-45,-214,-307,-350,-350,-128,47,-103,-294,-234,-199,-313,-247,-36,-75,-249,-251,-193,-184,-165,-156,-163,-133,-96,-81,-51,-45,-79,-77,10,227,616,1020,1145,685,-53,-227,2,-68,-212,-154,-146,-212,-191,-141,-146,-143,-96,-62,-55,-23,27,47,55,90,103,92,92,60,-4,-38,-60,-94,-100,-103,-122,-118,-105,-105,-70,-47,-116,-178,-148,-126,-158,-137,-120,-214,-281,-388,-534,-307,-2,-186,-429,-229,32,-42,-174,-148,-216,-313,-176,-96,-206,-189,-268,-247,459,1082,1121,1003,479,-79,-17,-103,-502,-440,-242,-221,19,-70,-582,-442,152,225,-259,-528,32,618,324,-88,-49,128,307,255,17,-73,4,32,-45,-70,-47,-62,-62,-19,25,51,58,27,-30,-55,-38,-27,-45,-109,-191,-236,-225,-199,-189,-174,-141,-103,-60,-36,-36,-27,-23,-58,-100,-100,-85,-75,-51,0,229,691,1093,1160,715,-30,-287,-98,-143,-257,-184,-169,-216,-186,-152,-152,-118,-68,-49,-55,-79,-47,96,201,199,184,141,58,-23,-10,79,2,-103,-36,-58,-148,-83,-92,-182,-60,51,17,-21,-113,-113,154,238,-214,-300,156,-169,-575,253,678,-34,-513,-562,-139,171,-436,-449,268,25,-459,-360,-298,-113,21,-272,-73,575,827,788,522,225,2,-350,-451,-247,-113,-53,-141,-305,-176,6,-92,-116,-19,-131,-70,240,184,2,113,182,109,111,148,113,62,15,-25,-21,4,8,17,40,66,98,92,49,30,45,42,38,68,83,81,96,68,-21,-79,-98,-118,-109,-118,-191,-240,-232,-221,-208,-199,-208,-214,-197,-169,-158,-180,-176,8,474,913,861,221,-367,-369,-305,-330,-141,-113,-333,-290,-126,-279,-408,-270,-195,-148,-12,-34,-234,-171,158,264,298,371,167,-45,49,49,-158,-15,40,-322,-8,496,-90,-562,8,309,-4,-42,10,-100,6,17,-163,96,313,53,-126,-287,-236,165,103,-244,-210,-111,-141,-156,-156,-161,-163,-163,-146,-148,-180,-137,116,522,848,861,352,-292,-337,-135,-225,-290,-229,-236,-242,-199,-171,-148,-111,-77,-36,6,49,96,133,163,201,214,195,184,178,126,73,81,60,-36,-83,-53,-32,-19,4,8,12,23,10,15,51,49,32,62,98,105,116,98,8,-23,79,133,81,70,6,-60,55,81,81,281,214,-174,-427,-292,326,756,631,799.0,928.0,131.0,-457.0,-315.0,-481.0,-747.0,-599.0,-371.0,-212.0,-204.0,-378.0,-414.0,-281.0,-268.0,-257.0,-94.0,-107.0,-232.0,-64.0,1
448,480,497,510,508,482,425,333,249,196,117,21,-23,-34,-36,-19,-8,-4,-8,-42,-49,-14,-23,-64,-72,-64,-66,-49,-38,-46,-38,-34,-40,-12,19,0,-19,-8,-27,-59,-76,-117,-173,-198,-202,-202,-205,-245,-328,-358,-341,-373,-397,-410,-523,-625,-589,-531,-525,-504,-499,-540,-527,-459,-422,-414,-318,49,709,1115,450,-630,-643,-136,-222,-388,-288,-269,-294,-247,-222,-211,-183,-170,-153,-126,-111,-79,-14,49,108,160,200,247,307,369,422,450,450,435,397,335,258,181,113,57,38,49,53,49,57,70,83,104,102,59,34,10,-72,-119,-89,-76,-81,-87,-160,-220,-200,-183,-183,-155,-143,-149,-130,-106,-100,-91,-106,-143,-149,-113,-72,-74,-136,-200,-224,-234,-277,-314,-303,-286,-301,-322,-335,-343,-363,-397,-422,-299,179,877,1057,143,-798,-613,-247,-418,-446,-279,-301,-341,-264,-209,-192,-147,-106,-106,-89,-38,-12,-17,0,32,57,106,173,230,275,294,296,311,311,271,196,66,-111,-217,-222,-211,-211,-241,-331,-388,-348,-292,-273,-269,-294,-365,-420,-414,-412,-444,-442,-412,-384,-341,-296,-271,-252,-228,-200,-158,-121,-102,-76,-55,-49,-23,34,89,121,134,147,151,140,134,149,170,177,183,200,213,200,175,147,123,187,536,1198,1640,1078,-34,-292,81,32,-119,2,36,-27,4,46,51,70,34,-81,-140,-136,-153,-158,-170,-245,-281,-230,-217,-281,-320,-316,-316,-303,-286,-301,-354,-440,-523,-559,-557,-549,-525,-504,-506,-482,-427,-382,-343,-305,-292,-275,-230,-183,-140,-106,-98,-96,-66,-23,8,17,-19,-55,-40,-6,14,34,38,23,23,46,74,96,98,104,149,196,215,234,243,211,181,187,213,228,230,215,147,59,44,70,53,25,162,662,1350,1424,487,-341,-220,-29,-190,-179,-66,-76,-74,-55,-81,-72,-38,-21,-10,-57,-149,-168,-132,-111,-74,-25,2,29,70,104,138,155,132,85,10,-100,-207,-294,-386,-457,-489,-493,-478,-457,-444,-446,-446,-422,-386,-352,-324,-316,-316,-296,-258,-224,-192,-181,-192,-179,-143,-111,-85,-76,-106,-130,-149,-194,-211,-209,-286,-369,-348,-296,-275,-252,-269,-311,-296,-247,-217,-192,-177,-177,-138,-53,10,32,27,-32,-130,-155,-121,-104,-96,-91,-106,-108,-74,-42,-34,-38,-19,215,833,1520,1488,572,-128,-36,70,-64,-42,40,27,34,85,115,128,158,187,200,217,241,239,228,254,279,271,264,286,292,249,196,181,179,153,108,55,-29,-143,-234,-311,-373,-390,-408,-493,-578,-578,-549,-531,-508,-499,-514,-510,-478,-442,-405,-369,-361,-386,-388,-348,-309,-305,-367,-446,-440,-386,-361,-333,-318,-331,-320,-271,-230,-196,-168,-168,-160,-119,-81,-46,-19,-17,-21,4,36,57,87,121,136,113,91,111,119,76,2,-40,-25,4,14,21,21,25,49,74,83,200,651,1350,1617,927,87,27,194,64,23,117,96,44,53,2,-115,-166,-162,-166,-164,-185,-252,-269,-215,-181,-158,-132,-149,-166,-158,-170,-177,-160,-170,-215,-264,-331,-395,-433,-463,-491,-497,-491,-474,-437,-405,-395,-397,-412,-408,-369,-331,-314,-301,-318,-365,-375,-335,-311,-311,-294,-260,-226,-185,-149,-140,-140,-117,-81,-44,-10,4,0,10,44,79,108,126,113,91,76,66,76,70.0,-19.0,-106.0,-72.0,12.0,49.0,49.0,-2.0,-104.0,-153.0,-132.0,-113.0,-96.0,-91.0,-106.0,-98.0,-59.0,-25.0,-12.0,-36.0,2
-466,-468,-481,-490,-462,-410,-362,-322,-296,-276,-252,-224,-183,-133,-91,-56,-26,0,17,93,235,322,327,335,344,338,331,283,229,233,239,215,211,226,222,218,224,231,252,405,804,1245,1059,78,-434,76,364,185,242,353,283,250,281,285,305,327,287,229,229,272,305,329,355,364,379,442,460,407,392,366,279,205,143,47,-30,-82,-146,-187,-202,-229,-270,-314,-353,-377,-364,-355,-381,-438,-516,-529,-484,-460,-460,-492,-562,-584,-553,-529,-510,-468,-447,-442,-407,-372,-370,-383,-375,-362,-340,-298,-270,-257,-242,-242,-266,-189,183,774,948,91,-820,-556,-122,-320,-372,-191,-207,-224,-130,-104,-98,-41,-19,-2,50,80,113,170,205,226,268,320,366,372,348,353,362,290,189,137,82,23,-8,-28,-34,-21,-32,-119,-207,-213,-198,-202,-191,-220,-333,-429,-477,-543,-503,-364,-364,-451,-438,-399,-407,-407,-401,-427,-462,-447,-403,-383,-370,-359,-377,-383,-372,-390,-440,-462,-431,-399,-379,-340,-305,-270,-45,503,1020,691,-431,-841,-285,-102,-274,-148,-23,-71,-56,4,-4,-19,15,47,63,85,115,159,211,255,298,346,383,418,458,475,434,200,-170,-300,-235,-150,13,26,-139,-178,-176,-309,-401,-324,-161,-37,-45,-117,-141,-139,-141,-137,-196,-338,-362,-222,-102,-82,-146,-202,-224,-272,-333,-375,-381,-396,-453,-392,-211,-196,-303,-307,-215,-187,-248,-233,-220,-311,-333,-281,-290,-270,-172,-137,-135,-95,8,381,990,1240,497,-545,-525,-8,-74,-189,-6,37,-130,-237,-130,-47,-124,-141,-56,-10,-8,-37,-67,-34,28,95,202,239,209,281,329,117,-124,-148,-170,-276,-316,-348,-429,-451,-429,-381,-119,209,191,41,69,95,58,74,102,93,82,78,69,50,10,-54,-106,-122,-124,-124,-122,-133,-135,-126,-130,-126,-115,-117,-115,-102,-104,-89,-41,-2,17,43,52,23,10,21,37,61,74,78,85,89,80,56,74,287,800,1210,671,-468,-682,-161,-161,-340,-189,-111,-183,-200,-194,-198,-163,-109,-71,-34,2,21,54,119,185,242,296,329,359,401,420,396,353,261,100,-28,-63,-91,-143,-178,-185,-167,-139,-117,-119,-150,-185,-207,-207,-191,-189,-205,-218,-213,-189,-170,-187,-200,-161,-135,-143,-143,-135,-146,-170,-163,-139,-157,-252,-314,-242,-170,-174,-165,-137,-133,-130,-119,-159,-163,-71,-34,-91,-143,-174,-148,-117,-128,-150,-220,-311,-290,-194,-117,54,519,1086,1014,-23,-820,-595,-329,-268,2,87,-23,41,150,143,130,161,165,157,194,244,268,292,316,346,394,447,455,418,370,205,-6,0,47,-122,-255,-191,-211,-274,-185,-213,-303,-211,-150,-157,-117,-122,-165,-185,-279,-390,-268,-109,-165,-185,-95,-78,-76,-56,-117,-191,-170,-124,-117,-124,-194,-292,-290,-237,-220,-202,-181,-174,-135,-76,-54,-41,-17,-4,26,80,93,91,113,111,89,109,150,167,167,165,165,172,161,200,486,1059,1456,935,-196,-501,15,106,-95,-23,37,-37,-45,-17,-32,-45,-34,-15,-4,-10,-45,-63,-17,2,-19,34,128,172,183,181,178,183,176,119,13,-74,-119,-154,-181,-213,-263,-300,-311,-300,-272,-239,-239,-290,-305,-268,-239,-218,-224,-263,-257,-205,-167,-154,-126,-93,-98,-100,-63,-28,-39,-159,-381,-466,-346,-246.0,-189.0,-78.0,74.0,202.0,220.0,176.0,187.0,209.0,194.0,170.0,183.0,233.0,248.0,233.0,215.0,130.0,-2.0,-65.0,-41.0,2
-105,338,431,-12,-23,36,229,465,-117,-471,117,83,-441,-233,-25,-184,-437,-566,-12,190,-332,-343,-124,-225,-285,-280,-280,-223,-175,-156,-169,-231,-253,-197,-147,-139,-132,-111,-83,-57,57,531,1226,1233,347,-233,-120,-122,-298,-257,-190,-223,-167,-87,-102,-75,-6,6,47,117,165,171,139,111,87,68,38,19,42,55,-21,-150,-216,-233,-263,-278,-287,-317,-283,-208,-280,-355,-117,117,-188,-400,233,420,-248,-94,319,-313,-617,304,609,-220,-265,268,49,-117,-57,-268,291,1471,1320,-40,-229,334,-317,-1016,-589,-238,-310,-27,10,-473,-503,-36,120,-137,-216,-51,-4,-25,0,-23,-68,-64,-70,-90,-81,-141,-240,-259,-265,-340,-370,-300,-293,-340,-276,-177,-160,-186,-165,-113,-96,-40,19,42,83,75,42,66,85,90,107,100,60,36,42,6,137,784,1578,1483,390,-291,-36,25,-231,-182,-265,-568,-452,-216,-394,-431,-40,27,-186,-147,-171,-465,-413,68,51,-422,-370,-102,-313,-308,-15,-253,-574,-471,-353,-602,-979,-540,238,-85,-615,-377,-229,-358,-263,-96,-92,-107,-19,68,55,15,0,-47,-90,-30,72,130,147,96,79,366,1040,1539,1050,36,-212,49,-21,-100,4,8,-15,17,51,109,147,115,70,111,171,137,98,96,27,-60,-72,-21,27,-6,-96,-175,-336,-557,-572,-469,-538,-636,-581,-486,-403,-338,-381,-420,-231,36,-32,-270,-216,-107,-167,-156,-36,25,-17,-77,-40,-42,-120,-40,-21,-81,428,1288,1263,83,-656,-182,154,-55,-23,132,85,53,143,177,92,51,120,199,255,304,345,321,240,201,218,203,152,139,109,19,-53,-137,-280,-388,-400,-407,-426,-422,-456,-493,-450,-409,-381,-302,-250,-280,-231,2,64,-210,-345,-229,-242,-313,-190,6,70,-40,-135,-57,231,769,1344,1271,293,-351,-85,36,-143,-130,-53,-47,-17,42,64,64,90,135,171,197,246,285,272,259,248,216,212,173,64,0,-40,-109,-141,-167,-218,-242,-229,-231,-227,-210,-216,-261,-317,-325,-285,-250,-208,-169,-184,-214,-214,-227,-259,-246,-205,-195,-195,-154,-102,-111,-102,173,879,1513,962,-227,-255,132,-184,-75,340,85,-242,-250,102,649,540,160,109,75,452,883,416,-51,501,922,343,-49,512,1072,718,150,120,347,340,83,6,321,465,-10,-332,30,540,486,242,349,368,233,231,214,169,334,368,90,-12,98,115,53,-4,-53,-30,150,587,1190,1271,555,53,201,246,68,53,90,25,-10,17,-10,-83,-105,-60,-15,19,62,81,81,113,156,124,75,75,49,-27,-94,-120,-143,-208,-261,-283,-334,-377,-345,-370,-454,-405,-295,-293,-345,-289,-154,-233,-435,-383,-244,-298,-304,49,390,173,-154,-87,-180,-750,-662,563,1552,1498,690,-310,-424,145,-30,-302,285,407,-85,-120,-233,-385,96,64,-529,-255,188,-130,-568,-49,585,-152,-776,-135,280,-188,-317,42,-154,-493,-351,-360,-538,-488,-469,-503,-435,-443,-529,-508,-450,-398,-257,-94,-15,10,-15,-111,-201,-199,-184,-201,-184,-190,-238,-244,-220,-21,651,1380,1014,-208,-540,-27,-4,-208,-83,10,-30,0,51,40,17,17,21,-55,-122,10,19,-205,-171,92,102,-233,-501,-317,-55,-81,-216,-321,-370,-609,-636,-102,-192,-750,-405,57,-370,-538,137,177.0,-443.0,-242.0,171.0,-238.0,-283.0,319.0,38.0,-525.0,-62.0,225.0,-370.0,-424.0,42.0,23.0,94.0,347.0,591.0,1226.0,1346.0,0
-15,4,10,12,21,10,0,38,212,588,1041,1304,1076,330,-167,4,107,-103,-161,-83,-66,-53,-6,-27,-103,-107,-58,-17,27,34,8,70,158,92,-51,51,343,324,32,-51,100,180,90,-8,12,-17,-201,-229,0,40,-238,-290,-79,-171,-530,-489,178,534,83,-395,-373,-49,-51,-294,-238,-262,-489,-294,143,103,-294,-298,34,-122,-560,-354,279,352,-73,-141,139,163,148,683,1274,1357,947,143,-313,-120,-2,-103,-100,-53,-62,-79,-55,-12,21,21,-25,-30,36,100,154,169,143,154,180,186,189,180,167,88,-27,-83,-113,-128,-135,-154,-156,-128,-90,-58,-40,-55,-105,-165,-204,-223,-236,-259,-275,-259,-242,-234,-225,-232,-249,-232,-191,-154,-126,-124,-165,-180,-107,-83,-165,-180,-96,-27,53,176,195,350,833,1200,1198,747,-85,-489,-281,-275,-442,-341,-238,-317,-433,-476,-201,161,94,-75,-58,-49,96,126,-38,259,474,51,-40,369,283,-242,-305,2,-90,-277,-15,70,-238,-264,-111,-223,-244,-58,-88,-225,-214,-189,-201,-201,-195,-189,-174,-174,-189,-182,-165,-148,-120,-85,-62,-45,-17,17,34,38,40,32,21,12,19,47,58,111,365,788,1136,1170,653,-66,-195,10,-51,-109,-30,-77,-180,-152,-83,-58,-23,-2,-23,-27,21,79,111,126,137,146,141,100,12,-126,-285,-337,-309,-234,-49,-12,-300,-455,-212,-96,-227,-77,6,-345,-388,-42,-32,-118,-70,-167,-193,-225,-414,-296,60,27,-386,-367,189,292,-174,-356,-113,-23,-105,-23,53,2,45,81,75,431,880,919,936,863,113,-337,107,193,-167,-171,-105,-210,-238,-186,-171,-176,-161,-131,-98,-79,-40,19,60,68,81,111,116,85,23,-45,-77,-94,-103,-96,-98,-116,-103,-70,-70,-83,-96,-131,-150,-137,-120,-109,-116,-135,-131,-113,-124,-154,-178,-199,-212,-184,-139,-103,-75,-75,-85,-68,-49,-53,-64,-126,-249,-208,45,178,292,650,1041,1314,1110,178,-380,139,461,-77,-442,-298,-285,-446,-264,-83,-496,-631,53,468,105,-206,-113,-92,-365,-350,223,242,42,605,483,-384,-309,214,23,-317,-165,73,42,-55,-30,-8,-47,-60,-81,-135,-174,-184,-199,-214,-210,-201,-201,-204,-204,-206,-193,-146,-103,-81,-64,-55,-42,-17,4,21,21,17,38,60,98,270,586,870,1001,822,244,-154,-42,8,-98,-51,17,-2,-21,-49,-77,-53,4,51,64,30,2,36,88,120,150,156,126,109,109,81,15,-60,-107,-122,-126,-120,-124,-156,-191,-195,-191,-176,-161,-204,-307,-369,-305,-204,-253,-333,-210,-143,-348,-378,-109,-83,-333,-317,-141,-169,-146,-186,-339,47,335,-98,-326,-116,109,232,429,844,1093,693,-169,-399,23,-36,-277,-126,-66,-174,-186,-201,-229,-199,-156,-133,-152,-221,-268,-255,-232,-212,-191,-204,-236,-249,-268,-300,-324,-375,-429,-431,-403,-375,-339,-311,-298,-290,-264,-214,-163,-126,-109,-100,-79,-45,-10,17,23,19,30,55,88,131,167,176,182,208,236,251,249,208,161,158,184,206,238,369,674,1052,1312,1196,575,42,116,195,6,0,146,333,502,262,-219,-174,425,608,118,-66,167,122,141,440,309,40,156,135,124,328,191,-79,-100,-6,135,100,-100,-126,-12,4,-34,-12,-4,-27,-15,6,17,36,36.0,-2.0,-51.0,-98.0,-126.0,-148.0,-169.0,-158.0,-128.0,-135.0,-176.0,-251.0,-320.0,-309.0,-290.0,-324.0,-328.0,-290.0,-262.0,-234.0,1
-294,-322,-320,-290,-288,-226,145,833,1236,617,-437,-563,-132,-145,-224,-53,-2,-49,4,74,89,100,117,121,134,183,245,299,350,384,401,418,444,467,474,448,382,305,260,239,215,192,132,42,27,68,79,72,51,-12,-44,-17,-14,-40,-27,4,10,23,61,68,42,21,17,38,61,64,36,-14,-38,-25,38,337,980,1473,1010,-27,-311,19,21,-72,51,100,72,115,153,136,123,138,166,187,217,269,314,339,371,399,410,410,397,365,316,241,151,81,40,2,-44,-76,-79,-61,-44,-29,-44,-100,-130,-132,-162,-232,-341,-435,-427,-365,-341,-343,-369,-448,-502,-493,-493,-489,-465,-482,-527,-514,-476,-457,-444,-343,61,734,922,91,-711,-578,-337,-442,-399,-256,-262,-292,-269,-237,-194,-140,-102,-64,-25,14,66,130,181,215,234,224,207,207,211,179,119,49,-19,-55,-70,-85,-91,-87,-79,-66,-68,-93,-123,-168,-222,-230,-222,-241,-256,-260,-269,-273,-296,-305,-267,-267,-365,-461,-489,-514,-536,-506,-495,-506,-482,-484,-414,-4,730,1102,401,-534,-536,-243,-343,-386,-288,-281,-258,-177,-126,-83,-44,-49,-29,40,100,147,194,213,228,252,271,303,328,307,281,262,190,87,10,-64,-136,-149,-153,-190,-170,-173,-243,-181,-87,-224,-271,4,27,-318,-275,64,-29,-328,-309,-42,149,53,-192,-324,-484,-666,-459,0,207,6,-422,-623,-420,143,1061,1335,249,-613,-440,-408,-384,-102,-207,-119,271,228,123,138,38,200,452,153,-158,222,610,380,151,544,822,243,-42,497,450,61,314,472,399,243,-328,-358,279,237,-153,-74,-55,-217,-166,-76,-108,-93,-55,-74,-32,53,49,25,68,55,-57,-119,-87,-61,-51,-40,-59,-57,-27,-51,0,382,1083,1525,869,-307,-444,70,-27,-326,-217,-76,-117,-98,-34,-85,-147,-93,-29,-10,29,61,55,57,89,121,138,138,121,104,83,27,-32,-89,-162,-207,-224,-260,-316,-273,-207,-324,-410,-343,-320,-346,-397,-418,-299,-217,-228,-166,-138,-220,-339,-335,-341,-574,-386,-149,-578,-480,49,-324,-745,-185,126,57,816,1219,271,-536,-690,-634,-111,32,-472,-452,-175,-433,-965,-711,100,-220,-801,-230,79,-405,-457,-49,44,-34,-59,-200,-205,-42,-51,-162,-228,-311,-378,-378,-388,-414,-440,-504,-529,-482,-472,-510,-536,-519,-476,-457,-440,-375,-316,-318,-337,-328,-346,-395,-416,-433,-455,-433,-367,-314,-305,-318,-326,-335,-175,393,1125,1119,27,-749,-414,-145,-292,-190,-46,-230,-408,-305,-155,-121,-134,-153,-143,-70,-19,0,57,46,-19,-12,72,239,117,-279,-2,587,168,-508,-245,44,-303,-433,-149,-181,-544,-474,-132,-277,-559,-305,-57,-440,-643,-72,493,170,-375,-211,-123,-365,-126,198,-76,-401,-463,-504,12,559,-155,-828,85,1296,1350,324,-542,-292,44,-164,-160,25,29,23,93,162,187,187,224,273,296,299,296,284,252,260,324,363,322,239,202,198,115,-6,-74,-168,-262,-258,-230,-260,-307,-337,-350,-335,-305,-284,-262,-273,-281,-232,-155,-98,-72,-66,-59,-91,-128,-132,-166,-175,-136,-115,-83,-61,-79,-89,-85,29,523,1298,1341,113,-854,-455,222,74,-309,32,536,247,-356,-100,514,452,378,390,119,183,480,606,777,608,-42,132,931,450,-277.0,224.0,324.0,-258.0,-369.0,-177.0,-21.0,-196.0,-425.0,-350.0,-393.0,-497.0,-437.0,-393.0,-388.0,-335.0,-331.0,-356.0,-286.0,-213.0,0
307,322,307,262,220,168,89,17,-46,-113,-149,-181,-215,-211,-202,-207,-190,-145,-104,-79,-59,-49,-23,27,42,12,72,194,166,0,-40,59,100,55,-72,-200,-185,-207,-314,-254,-106,-168,-320,-164,416,1115,1262,429,-732,-890,-38,299,-215,-649,-717,-382,145,104,-14,326,87,-405,-108,267,269,275,68,-10,388,264,-104,450,1053,241,-474,258,181,-675,-245,256,-130,-260,-61,-87,-128,-64,-57,-51,8,51,72,72,74,106,134,151,173,158,106,83,108,100,49,-4,-76,-102,-55,-25,-21,-53,-123,-168,-181,-106,254,991,1488,794,-397,-572,-254,-410,-553,-418,-373,-403,-341,-288,-296,-290,-262,-232,-166,-85,-40,-12,21,91,190,211,153,123,162,230,158,-49,-175,-220,-196,-237,-296,-2,138,-371,-448,70,-6,89,480,-190,-422,395,25,-508,463,976,104,-249,596,781,98,85,140,-320,-136,311,-100,-348,12,49,-2,123,187,598,1286,1078,-185,-790,-252,-44,-267,-179,-106,-205,-160,-49,-34,-4,42,53,25,-21,10,108,147,147,179,220,205,149,134,126,40,-64,-119,-155,-181,-200,-217,-209,-175,-145,-115,-98,-100,-81,-40,-4,27,51,59,46,34,55,100,121,119,136,158,153,138,130,128,87,10,-12,14,23,14,-6,81,553,1232,1217,147,-617,-286,-27,-215,-173,-19,-29,-25,21,4,-8,32,79,104,140,187,228,277,333,348,309,301,320,320,314,305,243,145,72,44,40,49,55,51,49,61,85,119,147,155,140,117,108,119,134,143,162,196,222,241,273,284,239,196,200,224,245,245,183,98,89,115,145,380,948,1454,1132,59,-440,-132,-100,-296,-226,-168,-202,-143,-104,-134,-111,-68,-72,-79,-81,-108,-136,-145,-128,-98,-91,-87,-59,-53,-79,-115,-164,-237,-303,-328,-322,-322,-331,-333,-314,-277,-267,-294,-309,-279,-256,-254,-230,-196,-196,-192,-145,-79,-29,-8,2,27,49,27,-4,2,29,66,123,149,121,87,115,222,484,1110,1734,1347,226,-181,38,-36,-192,-145,-153,-275,-333,-303,-166,4,-134,-382,-241,-138,-393,-341,-51,-230,-429,-117,44,-205,-256,-173,-275,-365,-390,-444,-495,-457,-346,-405,-555,-578,-587,-555,-403,-328,-373,-373,-318,-217,-279,-350,55,138,-299,-108,260,40,-68,100,66,-34,-2,25,32,74,93,83,111,149,153,271,715,1315,1300,425,-138,83,153,-42,-59,-59,-113,-81,-34,-49,-119,-202,-198,-138,-108,-74,-34,-19,0,27,14,-6,27,44,-6,-44,-91,-205,-299,-339,-373,-390,-395,-403,-369,-318,-305,-290,-254,-237,-220,-173,-143,-143,-130,-115,-89,-4,76,53,29,104,149,85,49,104,68,-10,113,222,98,14,49,98,373,1059,1659,1070,-202,-361,102,81,108,228,44,-128,-61,19,-42,-121,-117,-57,19,4,-59,-27,12,85,205,121,74,205,111,4,85,79,-42,-100,-64,-179,-346,-354,-254,-79,-46,-160,-207,-226,-166,-4,-4,-100,-87,-83,-128,-126,-102,-115,-138,-138,-115,-140,-228,-299,-284,-239,-262,-301,-286,-254,-249,-271,-196,217,935,1224,399,-585,-495,-121,-288,-427,-341,-358,-395,-346,-346,-346,-273,-256,-333,-354,-309,-284,-249,-211,-267,-356,-361,-333,-352,-373,-408,-508,-566,-553,-630,-749,-707,-527.0,-363.0,-205.0,-209.0,-480.0,-508.0,-516.0,-1063.0,-1196.0,-380.0,213.0,55.0,-119.0,-252.0,-617.0,-732.0,-309.0,343.0,386.0,-365.0,0
8,49,76,102,113,140,194,198,168,168,160,132,175,249,264,245,234,254,410,886,1527,1397,185,-482,40,269,19,123,249,140,140,247,286,286,284,260,213,153,96,91,132,147,113,74,59,42,-10,-104,-202,-277,-346,-412,-446,-491,-538,-516,-487,-534,-666,-788,-683,-444,-440,-499,-254,-10,-44,-134,-196,-328,-408,-290,-23,96,-130,29,459,4,-508,-29,211,-386,-343,476,414,-224,2,619,901,1063,858,-49,-655,-369,-198,-6,519,226,-215,-8,27,284,531,-83,-504,-226,162,472,55,-476,106,448,-10,126,433,192,74,119,-23,-128,-89,-70,-102,-175,-260,-249,-160,-126,-145,-151,-175,-200,-168,-113,-108,-113,-102,-108,-98,-66,-40,-25,-23,-25,-29,-27,-2,32,40,44,66,89,96,74,79,328,989,1617,1221,-2,-444,-38,-6,-145,2,61,4,29,46,-38,-136,-123,-70,-179,-264,-53,215,207,19,6,187,222,10,-115,55,140,-55,-123,-132,-354,-277,14,-271,-619,-284,-55,-346,-200,378,333,-205,-301,-140,-140,-14,-213,-662,-346,198,132,-27,-117,-361,-416,-230,-134,-143,-113,-49,-34,-14,19,96,482,1211,1452,536,-405,-241,96,-46,-74,38,-27,-115,-100,-70,-91,-145,-138,-100,-91,-64,-25,-6,42,111,143,160,194,192,140,68,-2,-59,-91,-132,-196,-202,-145,-119,-149,-181,-155,-123,-108,-106,-151,-213,-290,-375,-390,-356,-309,-234,-277,-397,-356,-320,-418,-435,-427,-478,-410,-324,-350,-104,151,-252,-666,91,1339,1322,258,-566,-745,-476,-303,-158,100,-134,-619,-553,-128,164,-49,-405,-106,173,-403,-628,343,726,-17,-215,128,149,57,83,25,-115,-198,-237,-252,-241,-254,-264,-239,-205,-147,-83,-91,-106,-66,-29,-19,-4,12,-2,-61,-85,-44,-27,-19,17,-29,-149,-173,-117,-83,-61,-55,-57,-32,-4,27,234,845,1589,1503,367,-326,-21,59,-194,-181,-147,-211,-173,-100,-66,-14,-2,-46,-53,17,79,61,143,331,275,164,395,455,59,-128,29,-68,-442,-401,36,12,-397,-220,21,-690,-805,151,138,-521,-367,-14,-111,-138,-126,-147,44,29,66,386,89,-388,-166,269,217,-237,-213,147,108,-46,-21,-44,-14,469,1185,1247,487,-21,-55,-335,-493,-284,-318,-472,-318,-115,-234,-484,-437,-228,-249,-294,-160,-64,-12,89,173,194,213,241,241,205,132,17,-93,-160,-190,-215,-247,-292,-318,-301,-273,-245,-215,-209,-217,-202,-153,-108,-91,-72,-29,17,44,79,128,143,113,79,76,123,170,185,162,93,44,59,145,484,1181,1525,638,-527,-467,14,-123,-286,-173,-128,-136,-83,-32,-23,-17,14,40,55,93,153,196,232,273,305,320,333,337,311,252,173,98,38,-25,-104,-181,-220,-215,-194,-170,-168,-196,-202,-151,-111,-102,-91,-111,-128,-55,25,23,10,21,14,2,-10,-40,-61,-38,-23,-42,-14,29,36,74,333,991,1572,1023,-237,-459,85,70,-64,87,81,81,149,2,8,185,76,106,457,346,12,284,527,256,267,538,410,331,576,414,-66,-151,-70,-130,-51,119,70,-113,-128,-8,46,42,49,111,155,106,64,115,168,192,249,281,269,267,256,260,260,181,136,187,200,181,209,222,168,192,555,1232,1570,860,-177,-207,166,19,-83,70.0,74.0,23.0,72.0,119.0,170.0,205.0,117.0,0.0,-10.0,53.0,123.0,190.0,232.0,151.0,-98.0,-245.0,-72.0,111.0,59.0,0
-271,-237,-207,-179,-160,-166,-164,-130,-96,-68,-44,-44,-49,-21,10,12,-19,-104,-200,-213,-175,-153,-140,-147,-192,-209,-175,-147,-115,-70,-104,-181,-170,-119,-126,-147,-145,-134,-108,-70,-42,-27,-12,0,10,49,258,801,1478,1582,771,-42,-126,-100,-279,-292,-220,-224,-198,-147,-121,-98,-70,-46,-12,21,49,87,119,147,183,217,245,264,258,245,256,267,267,260,224,164,111,51,-14,-49,-68,-100,-134,-168,-196,-211,-241,-316,-410,-444,-425,-405,-390,-371,-367,-369,-350,-320,-294,-294,-365,-448,-440,-393,-375,-378,-414,-452,-433,-388,-363,-380,-437,-472,-446,-412,-380,-305,-222,-202,-200,-158,-134,-140,-123,-100,-93,-72,-29,4,29,44,42,51,68,181,619,1322,1576,837,-6,-25,153,14,-32,53,53,66,132,155,155,177,200,230,264,284,292,260,190,183,232,258,262,230,138,87,106,106,81,49,-29,-119,-173,-222,-260,-269,-284,-356,-450,-497,-495,-512,-544,-551,-538,-527,-510,-476,-455,-452,-442,-422,-399,-367,-335,-322,-316,-303,-277,-243,-209,-196,-215,-230,-209,-173,-140,-113,-108,-113,-93,-66,-38,17,79,91,91,119,134,119,113,108,108,130,158,181,196,185,175,185,198,311,749,1420,1593,826,66,117,273,76,-53,-27,-34,-68,-106,-160,-232,-277,-247,-198,-170,-149,-132,-130,-121,-96,-57,-27,-6,10,40,76,104,117,119,96,19,-68,-128,-200,-288,-348,-395,-427,-427,-425,-422,-410,-403,-386,-361,-346,-328,-305,-296,-279,-254,-241,-230,-205,-187,-183,-164,-145,-132,-104,-68,-55,-79,-100,-87,-59,-40,-34,-29,-27,-23,-8,32,76,53,0,2,17,-6,-46,-123,-185,-173,-140,-123,-111,-138,-185,-181,-153,-51,369,1046,1213,324,-591,-491,-173,-316,-393,-275,-247,-234,-153,-111,-117,-108,-93,-85,-55,-25,-23,-14,27,79,126,164,194,213,239,277,305,301,258,173,42,-104,-220,-288,-348,-399,-418,-403,-390,-382,-367,-354,-348,-322,-307,-356,-410,-427,-480,-536,-499,-457,-448,-427,-448,-506,-491,-442,-425,-401,-393,-440,-469,-465,-465,-444,-399,-375,-361,-326,-296,-279,-254,-211,-177,-166,-162,-164,-170,-170,-162,-136,-115,-108,-87,-44,-32,-49,-70,-96,-57,267,935,1296,508,-655,-668,-151,-243,-399,-267,-237,-262,-181,-130,-140,-128,-93,-64,-23,-10,-64,-102,-68,-8,42,104,160,177,192,230,277,314,320,256,136,38,-42,-123,-173,-245,-367,-395,-335,-301,-281,-286,-352,-384,-328,-273,-254,-237,-222,-205,-162,-113,-74,-57,-51,-38,-17,17,53,79,89,96,115,128,113,83,72,81,102,164,234,241,232,241,220,192,211,239,247,260,269,228,173,162,177,173,183,410,1014,1625,1347,209,-279,192,316,66,98,166,83,14,-12,-23,0,34,42,-6,-87,-106,-68,-34,-2,34,51,68,111,160,202,230,226,202,170,91,-23,-136,-254,-358,-405,-427,-463,-484,-482,-499,-495,-455,-420,-393,-361,-361,-361,-316,-271,-249,-234,-241,-247,-230,-239,-290,-307,-303,-305,-286,-243,-213,-196,-185,-158,-89,-38,-36,-51,-85,-132,-138,-111,-79,-51,-44,-83,-155,-196,-166,-143,-155,-104,185,794,1264,717,-408,-591,-128,-187,-341,-175,-113,-153,-100,-53,-38,6,36,21,17,38,61,100,145,192.0,237.0,267.0,277.0,288.0,307.0,326.0,346.0,352.0,318.0,254.0,170.0,83.0,-17.0,-136.0,-226.0,-252.0,-269.0,-301.0,-314.0,2
-189,-159,-98,-52,6,78,128,154,187,235,274,305,318,283,207,137,80,28,-2,-32,-61,-56,-28,-8,8,19,17,26,43,50,52,28,-19,-34,-6,19,30,34,43,47,56,65,26,-41,-87,-130,-133,-85,-67,-76,-93,-178,-272,-261,-218,-218,-207,-185,-187,-172,-135,-100,50,479,1033,1018,-34,-950,-615,-109,-218,-259,-104,-106,-154,-119,-124,-174,-172,-148,-139,-115,-80,-65,-47,-10,30,80,130,159,172,183,194,198,176,102,-17,-115,-161,-183,-189,-183,-187,-198,-183,-148,-115,-98,-124,-165,-150,-111,-89,-67,-47,-56,-56,-28,2,23,15,-56,-124,-115,-80,-32,30,32,-10,-10,0,-19,-21,-45,-126,-157,-111,-87,-82,-71,-69,-13,279,881,1336,785,-486,-804,-115,104,-65,45,148,95,115,181,170,135,148,163,139,143,181,187,207,259,290,303,327,335,346,368,351,281,152,-17,-130,-194,-272,-316,-322,-359,-383,-353,-329,-333,-320,-298,-287,-263,-222,-207,-229,-244,-239,-220,-207,-255,-314,-309,-281,-270,-257,-274,-300,-272,-250,-248,-229,-248,-303,-314,-276,-244,-213,-183,-172,-172,-146,-93,17,364,979,1249,342,-926,-822,-2,58,-100,63,139,109,174,229,213,226,274,307,311,287,259,272,318,372,412,429,429,429,425,420,414,381,292,165,43,-82,-178,-239,-300,-351,-366,-355,-338,-333,-342,-370,-427,-458,-429,-401,-394,-401,-449,-492,-464,-425,-420,-394,-348,-285,-196,-150,-167,-163,-143,-167,-200,-211,-209,-189,-161,-148,-135,-109,-89,-61,82,466,1009,1114,152,-863,-525,157,69,-63,71,78,54,135,170,137,100,78,119,189,248,333,410,403,403,473,529,538,549,567,575,562,508,403,283,178,100,45,13,-19,-65,-98,-104,-100,-93,-100,-159,-218,-222,-224,-233,-261,-340,-390,-390,-431,-473,-473,-488,-473,-405,-381,-381,-351,-357,-405,-403,-353,-316,-292,-274,-259,-237,-229,-263,-244,23,553,926,405,-739,-935,-229,-69,-252,-113,-10,-89,-80,-23,-19,6,54,80,106,157,196,229,279,340,390,434,490,532,536,538,540,497,407,305,215,154,117,100,106,87,8,-47,-58,-80,-111,-148,-224,-298,-300,-263,-248,-237,-215,-215,-237,-252,-259,-252,-246,-261,-287,-296,-296,-327,-407,-477,-466,-434,-427,-403,-364,-357,-375,-362,-207,207,767,798,-231,-1092,-643,-139,-303,-305,-133,-161,-167,-61,-13,-6,21,43,63,117,172,207,239,263,294,351,420,464,471,464,449,425,368,250,113,-6,-117,-176,-165,-150,-148,-174,-239,-270,-231,-205,-194,-170,-163,-159,-126,-91,-71,-67,-80,-133,-181,-165,-126,-109,-98,-89,-89,-113,-174,-231,-268,-309,-329,-324,-318,-307,-294,-298,-239,85,684,1009,294,-772,-713,-146,-207,-318,-137,-87,-133,-78,-37,-37,6,63,85,98,119,159,202,222,235,263,287,314,357,386,394,370,296,207,141,93,56,0,-95,-146,-117,-89,-69,-67,-137,-198,-191,-218,-246,-222,-220,-233,-194,-148,-141,-157,-176,-183,-161,-137,-135,-137,-115,-106,-109,-82,-58,-76,-98,-98,-98,-111,-117,-139,-181,-209,-220,-220,-104,298,929,1149,242,-826,-623,-91,-248,-375,-233,-224,-246,-174,-137,-133,-95,-56,-30,4,43,85,130,172,215,274,314,342,386,410,403,383.0,333.0,246.0,126.0,-32.0,-185.0,-255.0,-261.0,-259.0,-252.0,-279.0,-368.0,-423.0,-392.0,-357.0,-329.0,-287.0,-268.0,-261.0,-237.0,2
173,200,258,303,316,318,309,281,228,153,79,-10,-96,-115,-102,-93,-93,-93,-93,-91,-74,-29,4,8,27,46,23,12,2,-36,-59,-68,-89,-100,-96,-93,-89,-68,-21,-8,-53,-98,-119,-170,-258,-299,-269,-260,-256,-239,-284,-350,-348,-318,-123,493,1204,1033,-202,-942,-487,-183,-395,-358,-155,-130,-187,-160,-4,46,-134,-130,128,111,-40,111,192,0,102,469,489,303,294,273,237,222,53,32,234,213,17,-134,-252,-147,76,32,-38,132,153,-29,-14,55,-130,-140,100,25,-166,-128,-83,-115,-143,-190,-224,-136,8,-53,-243,-173,-17,-322,-638,-243,-27,-463,-472,-352,-717,-888,-660,-98,301,448,1209,1341,-155,-886,-134,-49,-625,-578,-91,74,-168,-83,252,149,-29,91,207,217,239,288,335,375,427,463,489,516,527,523,510,465,414,384,335,275,249,232,196,175,183,179,177,192,194,209,243,245,237,258,275,290,324,320,288,288,267,207,211,252,168,55,57,70,34,6,-42,-123,-145,-132,-166,-192,-196,-243,-215,83,707,1345,1196,98,-638,-375,-76,-179,-222,-2,185,123,40,83,113,38,-119,-126,205,459,358,331,480,414,294,437,531,322,145,307,442,198,-51,-10,68,-132,-384,-245,-4,-126,-237,-25,-25,-416,-388,8,-343,-730,-228,76,-288,-681,-561,-175,-170,-337,-467,-760,-619,-200,-566,-989,-662,-361,-480,-596,-593,-254,-8,-854,-1151,-100,264,249,730,824,275,-343,-480,-328,-296,-264,-179,-91,-6,36,46,74,143,213,222,183,185,230,260,299,382,446,448,446,459,442,401,371,316,220,145,115,70,51,49,0,-40,-59,-85,-85,-91,-119,-134,-143,-166,-173,-190,-249,-286,-279,-284,-271,-226,-232,-316,-339,-288,-294,-322,-333,-418,-495,-455,-414,-410,-399,-478,-478,-211,38,465,1309,1352,-85,-1031,-378,-53,-593,-435,187,46,-363,-237,-241,-450,-87,145,-79,-57,162,331,267,181,350,499,337,155,502,743,318,155,448,401,57,-247,-348,-211,-153,-190,-149,-140,-179,-158,-130,-102,-23,-4,-55,-55,-42,-81,-106,-106,-96,-66,-51,-68,-81,-83,-126,-230,-309,-296,-249,-224,-245,-328,-390,-358,-314,-205,286,1087,1251,162,-841,-540,-104,-303,-339,-164,-200,-211,-72,-46,-93,-49,23,66,113,164,213,309,422,388,322,455,587,495,354,348,309,123,23,100,81,-66,46,288,102,-318,-202,183,-136,-465,-66,-230,-504,437,613,-484,-519,249,234,-173,-205,61,314,136,-51,-32,-482,-574,-111,-568,-1055,-59,401,-869,-1055,76,324,397,1016,971,-271,-1102,-581,-222,-476,-390,-164,-217,-222,-91,-59,-68,-2,51,59,96,164,200,192,185,202,254,314,307,252,239,258,187,51,27,55,-32,-89,-12,42,12,-14,17,51,64,87,117,113,106,115,111,106,119,136,155,173,190,198,183,104,-21,-91,-96,-106,-136,-209,-320,-369,-369,-382,-200,384,1042,860,-328,-954,-450,-256,-519,-420,-252,-303,-288,-194,-181,-181,-121,-66,-66,-96,-100,-79,-70,-61,-21,12,25,32,32,42,29,-27,-76,-117,-158,-160,-145,-132,-113,-89,-74,-53,-19,0,4,38,79,91,102,128,155,190,224,237,209,162,136,123,83,42,44,55,40,38,51,14,-70,-132,-46.0,354.0,1063.0,1422.0,572.0,-660.0,-713.0,-292.0,-429.0,-527.0,-397.0,-418.0,-442.0,-350.0,-307.0,-305.0,-301.0,-326.0,-343.0,-322.0,1
30,-62,-152,-141,-122,-122,-113,-171,-287,-309,-264,-281,-315,-328,-358,-395,-388,-343,-320,-328,-315,-292,-216,55,498,865,941,489,-214,-378,-171,-229,-317,-229,-176,-176,-137,-88,-60,-27,8,27,25,-6,-45,-58,-96,-64,100,212,298,42,-367,90,197,-406,270,898,-62,-625,23,485,292,128,81,-30,-96,-105,-30,77,244,277,-107,-232,167,240,-169,-240,107,98,-122,-131,-158,-193,-189,-333,-451,-369,-223,-242,-279,-98,81,380,801,687,-25,-453,-298,-249,-360,-268,-229,-315,-268,-174,-174,-193,-191,-184,-152,-96,-32,36,85,94,79,105,139,124,113,98,27,-19,-10,-15,-53,-70,-62,-53,-32,4,40,58,53,62,88,105,109,92,60,51,66,83,103,116,122,135,141,139,113,64,12,-70,-163,-180,-165,-223,-262,-75,337,764,996,717,-36,-438,-283,-326,-524,-444,-311,-388,-511,-410,-270,-277,-232,-148,-158,-148,-111,-103,-10,60,64,165,219,116,4,-70,-141,-264,-229,-36,-88,-133,-2,40,79,-23,-131,73,143,60,214,270,58,70,300,311,152,90,131,165,178,206,221,201,176,156,165,152,42,-88,-150,-176,-169,10,391,751,857,519,-182,-543,-360,-343,-524,-517,-479,-489,-451,-408,-393,-356,-287,-232,-178,-124,-81,-34,19,58,79,66,25,-6,-32,-58,-85,-109,-120,-122,-118,-98,-60,-30,-19,-2,30,62,83,103,126,139,141,128,17,-124,-32,70,8,268,468,-2,-120,421,384,-92,-90,131,176,68,-111,-90,-51,-285,-122,571,1145,1407,973,-62,-530,-268,-268,-605,-674,-453,-410,-610,-534,-201,-238,-431,-264,-111,-174,-152,-92,-94,-73,-25,-2,12,12,-38,-94,-109,-133,-163,-158,-122,-118,-148,-163,-135,-4,105,40,-2,55,94,113,133,133,146,178,199,204,169,109,100,137,150,154,169,148,113,124,143,135,105,58,21,-8,51,339,749,1001,837,174,-418,-384,-240,-367,-442,-425,-427,-403,-360,-330,-315,-300,-257,-201,-161,-111,-68,-49,-19,15,21,21,34,19,-19,-64,-111,-124,-113,-118,-116,-90,-68,-47,-21,21,45,30,49,90,107,124,124,42,-51,64,229,73,-30,180,197,135,279,81,-219,64,253,-90,-34,373,163,-169,64,382,620,975,953,333,-98,-146,-232,-146,-23,-225,-313,-118,-111,-223,-107,-10,-116,-191,-165,-118,-49,8,-17,-105,-141,-107,-98,-128,-163,-206,-238,-240,-225,-216,-210,-201,-184,-156,-124,-92,-64,-38,-19,-27,-23,8,36,45,45,55,85,100,96,94,90,83,88,81,66,70,90,77,60,83,79,10,-79,-118,53,438,822,1009,668,-113,-449,-223,-236,-384,-296,-266,-380,-397,-348,-324,-283,-255,-294,-317,-259,-199,-178,-124,-75,-83,-92,-90,-90,-60,-126,-350,-345,-111,-298,-550,-193,-75,-388,-152,94,-158,-290,-238,-32,-287,-981,-47,1267,307,-360,464,219,-277,337,403,-98,25,107,-23,154,225,111,133,131,30,4,34,-32,-79,124,541,962,1155,762,-83,-427,-193,-199,-333,-247,-199,-236,-176,-113,-126,-109,-77,-107,-135,-92,-38,-4,34,23,-47,-64,-27,-45,-105,-122,-150,-221,-262,-277,-272,-240,-216,-208,-180,-139,-107,-83,-70,-47,-17,-2,4,30,49,32,0,-12,-10,4,25,42,55.0,42.0,-8.0,-51.0,-49.0,-55.0,-105.0,-163.0,-219.0,-259.0,-259.0,-257.0,-221.0,32.0,554.0,1063.0,1093.0,339.0,-509.0,-457.0,1
298,328,317,268,257,294,307,266,165,15,-96,-146,-184,-227,-247,-262,-290,-296,-281,-270,-262,-249,-240,-216,-182,-167,-152,-146,-165,-182,-191,-221,-238,-238,-253,-266,-255,-249,-251,-262,-294,-307,-285,-275,-268,-240,-212,-204,-197,-180,-156,-135,-120,-113,-111,-98,-81,-64,-70,-116,-150,-141,-126,-109,-83,-62,-42,-25,-6,15,38,38,0,-40,-40,-21,-2,17,-8,-88,-113,-10,229,556,857,936,509,-180,-341,-73,-96,-238,-165,-98,-107,-62,-6,-4,-2,36,81,118,156,171,163,184,240,294,341,382,406,421,446,464,451,388,275,167,98,53,15,-12,-30,-51,-92,-137,-150,-163,-189,-212,-234,-242,-238,-240,-244,-247,-264,-266,-249,-242,-238,-225,-221,-212,-195,-184,-174,-154,-143,-133,-113,-105,-96,-79,-111,-184,-201,-174,-158,-141,-148,-219,-268,-249,-223,-204,-171,-158,-176,-182,-158,-128,-96,-64,-55,-62,-47,-17,2,4,-6,-19,-10,17,45,68,75,70,171,429,721,958,1016,569,-105,-182,55,-10,-79,2,-8,-45,10,60,68,79,94,120,158,197,232,253,268,300,348,397,444,472,474,472,464,414,341,251,109,-42,-113,-126,-143,-154,-154,-165,-197,-225,-236,-262,-311,-378,-421,-406,-391,-397,-391,-384,-386,-369,-345,-335,-320,-302,-298,-285,-259,-244,-232,-232,-268,-281,-255,-240,-227,-199,-184,-195,-212,-219,-199,-169,-154,-143,-126,-109,-92,-64,-38,-27,-21,-6,12,34,60,73,70,79,111,143,161,163,163,158,154,163,180,191,189,165,135,118,133,216,397,605,835,990,708,64,-197,-75,-148,-244,-154,-107,-131,-133,-128,-107,-64,-23,6,23,36,60,58,38,68,107,118,139,165,167,167,143,92,38,-12,-70,-124,-171,-210,-229,-225,-212,-223,-251,-270,-292,-302,-290,-279,-281,-279,-275,-270,-253,-236,-229,-223,-212,-208,-208,-225,-247,-236,-219,-216,-204,-180,-171,-161,-152,-195,-255,-251,-227,-219,-199,-219,-285,-300,-270,-251,-229,-201,-197,-191,-171,-146,-128,-148,-199,-212,-201,-219,-225,-191,-167,-167,-156,-111,-66,-36,-23,-17,-12,-4,12,30,47,58,58,68,94,118,191,386,653,910,1089,908,317,2,171,197,66,94,128,98,100,118,128,161,199,225,236,242,264,302,339,373,384,348,305,320,337,313,285,214,90,-2,-49,-111,-171,-201,-244,-317,-373,-416,-470,-515,-545,-550,-526,-507,-498,-481,-470,-461,-433,-406,-393,-373,-352,-343,-324,-298,-281,-262,-238,-225,-210,-186,-169,-154,-128,-111,-103,-83,-77,-96,-107,-94,-83,-77,-62,-42,-19,4,10,17,32,45,64,88,100,100,103,118,137,161,174,169,171,193,214,223,223,174,85,30,-19,-90,-124,-161,-240,-257,-214,-163,15,317,590,775,666,98,-302,-122,-25,-180,-137,-30,-40,-23,19,19,36,88,131,161,182,189,201,216,225,223,210,212,236,264,287,300,292,247,167,70,-19,-105,-195,-255,-285,-298,-294,-283,-279,-277,-277,-272,-249,-232,-221,-206,-195,-189,-169,-152,-156,-197,-272,-322,-309,-294,-290,-264,-264,-322,-373,-356,-326,-309,-292,-322,-380,-382,-352,-337,-300,-266,-264,-255,-216,-176,-143,-118,-105,-98,-81,-55,-42,-40,-42,-36,-30,-23,0,27,42,49,47,53,70,103,131,126.0,118.0,234.0,515.0,837.0,1104.0,1132.0,610.0,-19.0,25.0,275.0,161.0,96.0,189.0,176.0,156.0,216.0,249.0,232.0,199.0,2
-21,-61,-46,307,986,1298,521,-474,-365,87,-53,-187,-55,-42,-89,-36,14,32,76,126,143,147,177,226,273,316,352,365,390,450,504,523,521,463,395,386,371,303,194,25,-123,-166,-185,-234,-260,-288,-314,-290,-249,-220,-183,-170,-166,-132,-81,-53,-40,-17,-8,-21,-38,-32,-17,-21,-38,-53,-83,-130,-151,-158,-160,-147,-128,-113,-126,-181,-230,-252,-279,-303,-288,-264,-239,-224,-232,-234,-222,-226,-247,-254,-237,-217,-200,-185,-166,-140,-130,-134,-117,55,576,1251,1164,-53,-820,-333,-68,-373,-405,-343,-425,-403,-311,-279,-275,-271,-258,-220,-173,-117,-59,-25,0,51,117,190,262,316,343,365,390,405,350,217,81,-29,-104,-138,-162,-194,-226,-243,-224,-177,-140,-117,-96,-87,-70,-27,19,53,76,79,83,113,145,168,192,196,185,192,213,232,249,245,226,222,239,260,258,200,89,10,34,68,44,21,-42,-168,-209,-164,-162,-183,-177,-170,-168,-160,-170,-224,-220,53,679,1177,664,-480,-700,-230,-328,-559,-412,-352,-444,-442,-410,-397,-358,-322,-292,-252,-213,-175,-132,-96,-44,25,79,121,181,234,262,299,328,307,247,162,72,17,-23,-61,-72,-68,-66,-42,-27,-53,-83,-76,-49,-25,0,27,38,42,53,72,108,123,59,-36,-44,2,10,6,-19,-104,-147,-111,-89,-72,-55,-76,-81,-61,-68,-81,-89,-123,-153,-149,-130,-100,-68,-70,-83,-57,-17,6,6,-34,-29,267,931,1459,1036,-49,-373,17,14,-158,-55,-8,-76,-64,-42,-70,-83,-87,-126,-164,-166,-138,-115,-102,-83,-51,-17,25,70,108,134,149,145,130,83,-6,-93,-149,-198,-228,-228,-228,-222,-196,-175,-160,-134,-117,-132,-173,-211,-226,-230,-222,-196,-166,-170,-237,-286,-269,-243,-224,-200,-247,-331,-337,-292,-267,-243,-222,-222,-217,-190,-153,-104,-36,-4,-23,-25,12,27,21,32,17,-10,6,44,68,76,72,70,79,179,585,1305,1717,1095,91,-42,273,183,49,136,164,147,205,247,232,205,187,183,198,215,211,173,108,85,123,160,173,138,81,76,111,85,4,-126,-314,-457,-508,-555,-606,-630,-643,-638,-604,-574,-559,-536,-516,-504,-478,-446,-425,-399,-378,-386,-405,-403,-382,-356,-328,-314,-294,-260,-232,-209,-179,-160,-145,-119,-98,-79,-46,-23,-14,0,19,36,61,83,89,98,132,185,222,228,232,220,151,46,-17,-17,-10,-25,-34,-21,0,25,19,-61,-23,444,1189,1486,822,-106,-335,-209,-284,-320,-224,-209,-241,-205,-147,-111,-70,-29,-21,-19,-12,-4,23,36,14,14,61,115,158,200,217,213,215,211,173,104,23,-55,-115,-164,-205,-241,-288,-326,-331,-318,-299,-286,-281,-279,-273,-269,-286,-316,-369,-435,-452,-420,-386,-361,-333,-314,-296,-281,-256,-228,-211,-196,-215,-290,-331,-296,-273,-258,-243,-292,-354,-335,-296,-290,-271,-262,-281,-286,-294,-309,-279,-245,-239,-230,-202,-166,-111,-38,8,8,10,38,51,49,57,70,81,93,119,149,173,175,158,181,420,1018,1668,1602,722,115,185,185,32,34,0,-93,-70,-17,-10,-2,4,2,29,72,102,128,138,147,185,222,230,232,185,79,40,72,70,29,-68,-243,-386,-444,-508,-583,-608,-621,-621,-585,-540,-508,-484,-467,-448,-408.0,-358.0,-322.0,-301.0,-279.0,-258.0,-232.0,-192.0,-158.0,-138.0,-119.0,-100.0,-83.0,-53.0,-23.0,-6.0,10.0,29.0,38.0,55.0,2
-294,-207,-209,-418,-460,-281,-143,-213,-266,-133,-47,-71,-122,-181,-126,32,93,52,52,93,100,82,69,63,78,100,102,106,102,76,67,111,386,1049,1513,802,-412,-580,-205,-329,-455,-290,-239,-281,-246,-231,-259,-263,-257,-246,-242,-259,-226,-141,-85,-43,15,50,69,106,113,104,80,-28,-167,-226,-248,-316,-434,-501,-442,-401,-420,-383,-320,-314,-314,-272,-202,-161,-172,-148,-91,-71,-65,-39,15,45,19,54,152,183,141,102,85,85,91,85,34,15,78,89,41,28,-28,-82,128,697,1347,1419,436,-601,-519,-137,-222,-283,-276,-390,-335,-185,-194,-143,-69,-150,-270,-305,-329,-311,-124,-102,-130,126,174,-111,-128,80,98,115,113,-65,-181,-224,-453,-601,-222,65,-211,-335,-150,-130,-157,-69,-34,-56,-19,30,13,-13,-4,-13,-15,30,67,80,106,143,207,276,311,327,314,270,237,246,259,281,314,272,165,148,183,191,388,987,1640,1480,359,-412,-202,-45,-242,-218,-89,-113,-137,-104,-126,-152,-139,-157,-198,-181,-135,-117,-87,-19,45,87,124,163,205,235,224,174,117,30,-74,-122,-128,-146,-174,-209,-222,-198,-159,-141,-117,-78,-54,-34,-4,15,32,76,106,76,63,157,224,183,133,152,205,279,355,340,242,170,119,39,34,174,229,-15,-270,-220,-76,-30,-21,-47,133,874,1356,481,-665,-671,-229,-196,-359,-425,-479,-427,-222,-257,-444,-403,-178,-85,-276,-270,30,28,-181,-174,95,268,52,-159,207,678,383,-10,154,189,-80,-205,-170,-32,23,-104,-122,-19,-4,-6,15,19,50,111,135,135,163,191,189,187,215,233,211,198,226,274,311,309,285,218,111,74,95,85,65,76,43,-13,-19,-37,-78,-6,357,1027,1326,418,-748,-652,-152,-300,-429,-307,-320,-338,-270,-285,-335,-290,-222,-213,-200,-146,-104,-71,-17,50,115,170,196,207,233,266,255,167,50,-26,-76,-111,-93,-61,-109,-181,-143,-74,-106,-106,10,47,-52,-67,61,98,-43,-91,65,163,146,137,122,76,-6,13,215,268,143,45,-146,-244,-124,-85,-45,-104,-412,-331,-8,-115,-250,-229,-10,682,1284,865,-386,-933,-449,-178,-405,-562,-499,-418,-135,115,-133,-327,-185,-82,-93,-102,-61,6,61,102,159,220,259,290,296,294,303,255,152,52,-41,-113,-143,-150,-154,-159,-157,-150,-133,-104,-89,-74,-39,-21,-17,-17,-52,-93,-54,-34,-80,-54,-8,-89,-178,-161,-100,-17,13,-67,-157,-222,-300,-322,-305,-311,-324,-318,-298,-274,-248,-226,-172,71,691,1306,944,-266,-822,-455,-298,-447,-381,-296,-372,-386,-261,-207,-209,-106,-65,-130,-113,-98,-150,-82,85,119,52,146,346,351,209,183,237,183,39,-52,0,56,-119,-335,-355,-191,32,2,-244,-239,-4,69,2,-2,43,-4,-91,-91,-124,-185,-133,-119,-237,-255,-187,-165,-98,-58,-130,-141,-115,-165,-176,-126,-111,-113,-106,-115,-106,-93,-141,-163,76,684,1297,1053,-95,-667,-268,-165,-403,-320,-202,-237,-218,-165,-141,-106,-56,-19,0,32,80,139,213,270,303,338,383,401,372,353,333,257,167,106,56,13,-30,-67,-78,-87,-100,-67,-34,-63,-67,-15,21,41,50,-4,-58,-30,4,15,23,-17,-95,-135,-137,-117,-47,23,-6,-47,-17.0,-32.0,-87.0,-91.0,-95.0,-113.0,-130.0,-167.0,-261.0,-366.0,-303.0,-148.0,-165.0,-95.0,484.0,1162.0,933.0,-222.0,-791.0,-274.0,1
32,-104,-23,66,91,123,104,57,119,166,111,89,83,72,87,96,123,168,213,264,194,59,36,-59,-260,-343,-348,-348,-405,-587,-469,4,-23,-437,-384,-145,-202,-290,-222,-243,-365,-252,245,570,113,-375,-217,-100,-301,-412,-232,117,119,-130,-117,-70,-177,14,884,1743,1535,414,-269,-46,85,-85,-27,111,111,111,126,115,143,192,224,247,234,196,220,284,316,358,429,408,284,247,284,239,145,29,-104,-200,-243,-239,-234,-245,-239,-237,-247,-202,-111,-140,-215,-194,-177,-134,-55,-108,-196,-155,-134,-196,-239,-230,-222,-249,-249,-209,-209,-232,-241,-187,198,1036,1608,965,-230,-433,-104,-260,-318,-93,32,85,-29,-177,-132,-38,115,375,444,228,-91,-32,512,540,128,373,685,207,132,662,258,-187,465,619,-51,-222,100,224,-59,-264,-151,-190,-96,290,200,-121,-72,49,40,32,-8,-111,-177,-198,-226,-239,-252,-301,-284,-194,-151,-128,-138,-222,-113,450,1196,1273,433,-232,-211,-217,-343,-281,-217,-249,-252,-226,-190,-149,-132,-108,-68,-53,-57,-72,-115,-136,-123,-119,-113,-96,-96,-115,-158,-220,-267,-286,-294,-296,-292,-281,-267,-237,-205,-190,-164,-128,-123,-138,-119,-79,-29,-2,-57,-102,-55,-34,-72,-106,-160,-215,-207,-181,-170,-138,-117,-136,-128,111,736,1333,1021,66,-220,66,19,-85,59,132,85,87,121,149,192,239,258,269,307,371,393,373,384,393,378,386,414,414,371,307,252,228,196,153,147,138,113,106,113,145,192,170,102,70,98,104,72,23,-36,-6,59,40,32,-12,-151,-200,-158,-147,-151,-149,-168,-179,-145,-123,-72,288,1025,1405,593,-525,-457,51,-74,-198,-14,32,-23,8,17,6,126,213,132,158,356,410,286,230,256,288,237,102,305,647,435,57,-12,-8,36,158,119,8,91,-10,-320,-185,158,14,-422,-273,367,256,-140,23,-70,-130,153,6,-196,-213,-226,29,-44,-367,-147,-151,-668,-529,183,164,-53,745,954,-153,-502,-337,-581,-563,-598,-655,-187,-160,-734,-452,-14,-412,-307,119,-126,-267,-36,29,-8,12,6,-23,-8,8,-14,-32,-34,-93,-179,-185,-164,-168,-181,-202,-239,-254,-249,-262,-258,-252,-277,-286,-232,-160,-106,-93,-96,-91,-106,-126,-170,-247,-279,-279,-299,-281,-256,-277,-314,-279,25,715,1256,732,-412,-732,-427,-463,-589,-508,-478,-534,-559,-544,-506,-465,-422,-386,-410,-378,-194,-143,-173,44,160,-29,-130,-123,-247,-343,-91,147,-160,-425,-281,-217,-196,-213,-346,-220,-149,-395,-378,-200,-215,-100,-85,-322,-183,-23,-277,8,542,-102,-698,-173,158,17,-234,-352,-237,-254,-194,-170,-117,538,1104,736,155,117,-113,-529,-179,81,-425,-668,-442,-175,-57,-220,-307,-234,-277,-303,-213,-151,-128,-113,-130,-119,-102,-151,-175,-155,-192,-256,-288,-309,-324,-341,-380,-418,-429,-433,-469,-525,-540,-521,-497,-476,-463,-427,-348,-296,-296,-258,-205,-211,-224,-228,-247,-215,-143,-155,-181,-119,-89,-111,-53,267,948,1433,824,-228,-311,2,-93,-100,6,-27,-32,32,74,111,140,173,200,211,256,331,378,380,346,316,318,290,217,155,55,-89,-158,-198,-326,-333,-140,-217,-499,-299,29,-258,-591,-397,-151,-61,-59,-181,-158,-61,-190,-303,-106,292,371,-55,-262.0,-53.0,-57.0,-209.0,-247.0,-232.0,-93.0,-29.0,-198.0,-175.0,390.0,1206.0,1478.0,649.0,-378.0,-380.0,-49.0,-194.0,-239.0,-85.0,1
